# OpenSignals Text File Format. Version 1
# {"00:07:80:0F:31:50": {"position": 0, "device": "biosignalsplux", "device name": "00:07:80:0F:31:50", "device connection": "BTH00:07:80:0F:31:50", "sampling rate": 1000, "resolution": [16, 16, 16, 16], "firmware version": 775, "comments": "", "keywords": "", "mode": 0, "sync interval": 2, "date": "2024-6-3", "time": "7:28:33.916", "channels": [1, 2, 3, 4], "sensor": ["ECG", "XYZ", "XYZ", "XYZ"], "label": ["CH1", "CH2", "CH3", "CH4"], "column": ["nSeq", "DI", "CH1", "CH2", "CH3", "CH4"], "special": [{"SpO2": [80, 40, 5, 4, 3, 3]}, {"SpO2": [80, 40, 5, 4, 3, 3]}, {"SpO2": [80, 40, 5, 4, 3, 3]}, {"SpO2": [80, 40, 5, 4, 3, 3]}, {"SpO2": [80, 40, 5, 4, 3, 3]}, {"SpO2": [80, 40, 5, 4, 3, 3]}, {"SpO2": [80, 40, 5, 4, 3, 3]}, {"SpO2": [80, 40, 5, 4, 3, 3]}], "digital IO": [0, 1], "sleeve color": ["yellow", "green", "green", "green"]}}
# EndOfHeader
0	0	32576	37992	32762	32776	
1	0	32548	37986	32768	32769	
2	0	32532	38016	32754	32768	
3	0	32544	38024	32768	32768	
4	0	32540	38016	32756	32768	
5	0	32524	38016	32754	32768	
6	0	32532	38018	32764	32768	
7	0	32522	38000	32760	32762	
8	0	32448	37986	32762	32760	
9	0	32400	38008	32756	32768	
10	0	32328	37992	32768	32756	
11	0	32197	37988	32768	32768	
12	0	32088	37992	32768	32764	
13	0	32096	37992	32772	32760	
14	0	32164	37992	32770	32754	
15	0	32320	37988	32762	32744	
16	0	32488	37988	32756	32760	
17	0	32588	38000	32768	32756	
18	0	32602	37992	32778	32760	
19	0	32572	37984	32772	32764	
20	0	32544	37986	32768	32756	
21	0	32620	37996	32760	32768	
22	0	32748	37992	32764	32760	
23	0	32896	38000	32764	32760	
24	0	32976	38016	32764	32754	
25	0	33044	38016	32764	32756	
26	0	33112	37992	32752	32764	
27	0	33152	37992	32752	32756	
28	0	33120	38008	32756	32756	
29	0	33104	38002	32754	32772	
30	0	33104	38008	32752	32778	
31	0	33000	38016	32760	32784	
32	0	32962	38024	32760	32770	
33	0	32986	38032	32748	32772	
34	0	32992	38032	32764	32760	
35	0	32928	38012	32752	32776	
36	0	32866	38020	32752	32784	
37	0	32836	38000	32744	32772	
38	0	32800	38016	32760	32768	
39	0	32816	38008	32752	32772	
40	0	32780	37984	32744	32780	
41	0	32704	37988	32752	32790	
42	0	32644	37988	32744	32766	
43	0	32568	37992	32752	32760	
44	0	32500	38000	32752	32772	
45	0	32448	38000	32760	32768	
46	0	32332	38020	32752	32760	
47	0	32216	38018	32738	32768	
48	0	32144	38032	32736	32768	
49	0	32168	38004	32736	32776	
50	0	32224	37992	32738	32776	
51	0	32320	38004	32738	32762	
52	0	32442	37992	32744	32764	
53	0	32556	38000	32738	32776	
54	0	32656	38000	32736	32792	
55	0	32712	38008	32760	32768	
56	0	32780	38012	32756	32776	
57	0	32848	37992	32768	32764	
58	0	32912	37984	32752	32768	
59	0	32856	37984	32768	32757	
60	0	32796	38004	32748	32764	
61	0	32768	37994	32744	32752	
62	0	32736	38004	32732	32760	
63	0	32716	37972	32760	32768	
64	0	32682	37976	32752	32768	
65	0	32672	37986	32744	32780	
66	0	32612	37976	32752	32780	
67	0	32576	37970	32768	32776	
68	0	32552	37984	32768	32762	
69	0	32568	37992	32760	32753	
70	0	32554	37996	32760	32772	
71	0	32492	37988	32764	32768	
72	0	32432	38000	32780	32768	
73	0	32372	37996	32774	32768	
74	0	32312	38000	32768	32768	
75	0	32264	37996	32772	32760	
76	0	32240	37992	32776	32768	
77	0	32224	37992	32764	32768	
78	0	32304	38016	32766	32764	
79	0	32336	38010	32760	32776	
80	0	32240	38016	32760	32788	
81	0	32264	38024	32764	32764	
82	0	32332	38004	32746	32772	
83	0	32486	37992	32748	32788	
84	0	32600	38000	32752	32774	
85	0	32652	37984	32752	32780	
86	0	32768	37988	32744	32784	
87	0	32836	37988	32760	32776	
88	0	32824	37984	32758	32776	
89	0	32720	37984	32752	32782	
90	0	32642	38008	32768	32768	
91	0	32608	38016	32764	32758	
92	0	32568	38004	32748	32772	
93	0	32584	38000	32752	32772	
94	0	32604	37992	32752	32776	
95	0	32568	37992	32752	32772	
96	0	32458	37988	32756	32776	
97	0	32448	38000	32768	32752	
98	0	32452	38016	32756	32770	
99	0	32418	38024	32748	32776	
100	0	32368	38004	32756	32774	
101	0	32324	37984	32752	32768	
102	0	32360	38000	32760	32770	
103	0	32368	38000	32760	32768	
104	0	32440	37976	32756	32768	
105	0	32568	37976	32760	32760	
106	0	32588	37992	32756	32768	
107	0	32554	37992	32768	32760	
108	0	32576	37968	32768	32772	
109	0	32660	37972	32760	32762	
110	0	32716	37988	32770	32768	
111	0	32832	38008	32772	32768	
112	0	32904	38016	32768	32768	
113	0	32856	38016	32776	32780	
114	0	32724	38024	32768	32772	
115	0	32616	38036	32756	32784	
116	0	32568	38040	32768	32776	
117	0	32602	38048	32770	32776	
118	0	32664	38024	32760	32780	
119	0	32696	38000	32756	32788	
120	0	32688	38000	32748	32800	
121	0	32720	38016	32760	32784	
122	0	32740	38018	32760	32780	
123	0	32768	38008	32746	32776	
124	0	32752	38014	32752	32768	
125	0	32728	37984	32752	32768	
126	0	32692	37992	32772	32764	
127	0	32740	37992	32768	32772	
128	0	32780	38004	32760	32768	
129	0	32738	38012	32764	32768	
130	0	32650	37996	32776	32760	
131	0	32580	38020	32784	32768	
132	0	32520	38000	32772	32760	
133	0	32456	38008	32770	32772	
134	0	32370	38024	32768	32768	
135	0	32272	38016	32762	32772	
136	0	32292	38000	32768	32776	
137	0	32364	37978	32748	32780	
138	0	32484	37978	32752	32768	
139	0	32564	37976	32748	32780	
140	0	32524	37984	32760	32760	
141	0	32512	37980	32756	32768	
142	0	32528	37984	32748	32760	
143	0	32584	38012	32752	32760	
144	0	32696	38024	32748	32752	
145	0	32796	38008	32744	32760	
146	0	32852	37992	32748	32756	
147	0	32880	37992	32764	32752	
148	0	32864	37994	32760	32750	
149	0	32840	37984	32762	32748	
150	0	32728	37996	32764	32740	
151	0	32688	38016	32760	32742	
152	0	32658	38000	32768	32740	
153	0	32652	38028	32776	32736	
154	0	32644	38016	32768	32740	
155	0	32656	38016	32748	32760	
156	0	32600	38008	32752	32744	
157	0	32544	38010	32748	32760	
158	0	32476	37992	32756	32764	
159	0	32416	38016	32756	32756	
160	0	32346	38018	32760	32754	
161	0	32281	38020	32760	32760	
162	0	32272	38004	32760	32752	
163	0	32320	37988	32756	32754	
164	0	32404	38008	32756	32746	
165	0	32456	38016	32746	32748	
166	0	32452	38020	32741	32756	
167	0	32448	38008	32748	32760	
168	0	32480	37996	32736	32772	
169	0	32474	37996	32736	32768	
170	0	32428	37996	32748	32768	
171	0	32376	38000	32756	32764	
172	0	32304	38010	32760	32768	
173	0	32216	38024	32752	32768	
174	0	32184	38010	32752	32780	
175	0	32188	38016	32752	32776	
176	0	32192	38016	32746	32772	
177	0	32160	38016	32752	32768	
178	0	32228	38032	32748	32768	
179	0	32384	38016	32748	32784	
180	0	32536	38004	32752	32768	
181	0	32640	37992	32752	32760	
182	0	32650	38000	32744	32776	
183	0	32594	38008	32738	32776	
184	0	32568	38000	32740	32770	
185	0	32600	37988	32744	32768	
186	0	32676	37984	32736	32772	
187	0	32640	38004	32738	32780	
188	0	32560	37996	32742	32784	
189	0	32496	37988	32752	32784	
190	0	32432	37996	32756	32772	
191	0	32340	38010	32756	32768	
192	0	32272	38000	32760	32776	
193	0	32218	38004	32752	32780	
194	0	32146	38024	32748	32784	
195	0	32068	38032	32748	32780	
196	0	32016	38032	32740	32784	
197	0	31964	38016	32756	32782	
198	0	31972	38016	32756	32768	
199	0	32008	38024	32764	32772	
200	0	32020	38016	32772	32784	
201	0	32052	38000	32760	32780	
202	0	32102	37988	32764	32778	
203	0	32196	38000	32762	32776	
204	0	32256	38008	32760	32776	
205	0	32304	37984	32756	32784	
206	0	32352	37976	32764	32784	
207	0	32372	37996	32752	32776	
208	0	32356	38000	32760	32778	
209	0	32318	37996	32768	32776	
210	0	32224	38000	32768	32768	
211	0	32096	38016	32762	32756	
212	0	32100	38016	32768	32760	
213	0	32100	38008	32776	32772	
214	0	32068	37994	32778	32766	
215	0	32072	37996	32772	32764	
216	0	32064	38008	32776	32756	
217	0	32064	37996	32776	32760	
218	0	32140	38000	32776	32764	
219	0	32288	38000	32776	32768	
220	0	32376	38016	32780	32764	
221	0	32356	38010	32768	32772	
222	0	32360	38012	32768	32768	
223	0	32392	38016	32768	32776	
224	0	32452	38020	32768	32772	
225	0	32524	38024	32752	32776	
226	0	32505	38008	32762	32784	
227	0	32357	38000	32764	32784	
228	0	32192	37988	32754	32784	
229	0	32144	38000	32752	32794	
230	0	32104	37992	32748	32796	
231	0	32028	37996	32744	32792	
232	0	32002	38000	32744	32784	
233	0	32000	38016	32728	32788	
234	0	32000	38010	32748	32780	
235	0	31950	38000	32760	32780	
236	0	31856	37984	32770	32776	
237	0	31824	37964	32752	32762	
238	0	31824	38000	32738	32768	
239	0	31804	37988	32746	32770	
240	0	31816	38000	32760	32756	
241	0	31877	38004	32740	32756	
242	0	32008	38000	32744	32764	
243	0	32208	38016	32752	32762	
244	0	32336	38008	32752	32754	
245	0	32384	37996	32748	32756	
246	0	32360	38000	32740	32762	
247	0	32256	37996	32756	32760	
248	0	32212	38000	32754	32762	
249	0	32212	38008	32752	32772	
250	0	32140	37992	32744	32768	
251	0	31968	37992	32760	32772	
252	0	31836	37976	32760	32760	
253	0	31768	37996	32752	32780	
254	0	31720	38012	32772	32764	
255	0	31620	37996	32764	32756	
256	0	31584	38000	32760	32746	
257	0	31644	37984	32756	32752	
258	0	31758	37984	32772	32752	
259	0	31877	37996	32764	32760	
260	0	32012	38000	32754	32760	
261	0	32121	37996	32756	32752	
262	0	32256	37994	32772	32736	
263	0	32416	37984	32776	32736	
264	0	32468	37992	32768	32748	
265	0	32480	38024	32760	32754	
266	0	32428	38016	32764	32756	
267	0	32432	38024	32768	32768	
268	0	32372	38001	32764	32752	
269	0	32347	37996	32768	32752	
270	0	32348	38008	32760	32748	
271	0	32292	38016	32760	32748	
272	0	32192	38004	32768	32756	
273	0	32144	38010	32768	32760	
274	0	32151	38008	32756	32756	
275	0	32168	38008	32760	32752	
276	0	32084	37996	32762	32764	
277	0	32008	38008	32760	32764	
278	0	32004	38008	32768	32748	
279	0	32040	38016	32752	32756	
280	0	32108	38020	32752	32760	
281	0	32160	38020	32760	32754	
282	0	32196	38016	32768	32736	
283	0	32164	38024	32752	32744	
284	0	32164	38016	32760	32752	
285	0	32160	38016	32736	32768	
286	0	32152	38000	32746	32760	
287	0	32160	38000	32754	32760	
288	0	32116	38004	32728	32768	
289	0	32066	38012	32724	32776	
290	0	32000	38000	32746	32768	
291	0	32004	38016	32744	32773	
292	0	32018	38016	32752	32768	
293	0	32042	38012	32760	32776	
294	0	32096	38028	32762	32772	
295	0	32114	38004	32752	32780	
296	0	32141	37994	32756	32772	
297	0	32180	37980	32760	32788	
298	0	32236	38000	32768	32772	
299	0	32308	37992	32760	32764	
300	0	32366	38016	32756	32772	
301	0	32560	38008	32768	32776	
302	0	32788	38004	32764	32776	
303	0	32880	38016	32748	32772	
304	0	32952	37992	32744	32770	
305	0	33008	38002	32746	32794	
306	0	32952	37992	32744	32796	
307	0	32912	38008	32764	32784	
308	0	32948	38024	32748	32784	
309	0	33008	38024	32748	32770	
310	0	33004	38032	32762	32772	
311	0	33098	38008	32752	32776	
312	0	33202	38020	32760	32768	
313	0	33268	38024	32768	32772	
314	0	33384	38000	32768	32776	
315	0	33456	37992	32756	32776	
316	0	33496	38010	32756	32784	
317	0	33544	38006	32760	32784	
318	0	33588	38016	32760	32782	
319	0	33636	38016	32752	32778	
320	0	33630	38000	32756	32780	
321	0	33594	38024	32756	32772	
322	0	33536	38024	32752	32776	
323	0	33520	38008	32740	32762	
324	0	33496	38004	32748	32768	
325	0	33484	37992	32746	32770	
326	0	33500	37992	32748	32772	
327	0	33496	37960	32736	32784	
328	0	33464	37968	32748	32776	
329	0	33416	37992	32752	32778	
330	0	33340	38004	32748	32784	
331	0	33300	38000	32749	32784	
332	0	33192	38008	32754	32776	
333	0	33036	38004	32758	32768	
334	0	32844	37992	32760	32768	
335	0	32660	37984	32756	32778	
336	0	32592	38016	32744	32776	
337	0	32494	38020	32762	32768	
338	0	32480	38024	32768	32768	
339	0	32504	37992	32760	32780	
340	0	32480	38004	32760	32772	
341	0	32420	37996	32744	32772	
342	0	32460	38004	32740	32770	
343	0	32644	38018	32756	32768	
344	0	32780	38004	32752	32768	
345	0	32808	38000	32756	32752	
346	0	32812	37988	32760	32760	
347	0	32928	37992	32768	32760	
348	0	33056	38000	32768	32760	
349	0	33146	38004	32764	32752	
350	0	33162	38008	32762	32756	
351	0	33080	38016	32760	32764	
352	0	33076	38016	32756	32768	
353	0	33050	38032	32748	32752	
354	0	33010	38024	32736	32762	
355	0	33004	38032	32738	32756	
356	0	32946	38016	32740	32760	
357	0	32842	38024	32728	32768	
358	0	32736	38028	32744	32776	
359	0	32592	38020	32744	32768	
360	0	32456	38008	32728	32756	
361	0	32403	38016	32744	32752	
362	0	32344	38032	32746	32748	
363	0	32272	38016	32764	32748	
364	0	32228	38004	32748	32752	
365	0	32152	37996	32764	32748	
366	0	32052	38002	32760	32756	
367	0	31954	38016	32744	32752	
368	0	31940	38028	32744	32752	
369	0	31952	38024	32752	32756	
370	0	31872	38012	32760	32748	
371	0	31784	38004	32748	32768	
372	0	31676	38000	32752	32760	
373	0	31560	37988	32756	32762	
374	0	31512	38016	32752	32762	
375	0	31568	38000	32758	32764	
376	0	31680	38004	32764	32760	
377	0	31792	38008	32768	32752	
378	0	31816	38028	32768	32744	
379	0	31784	38028	32760	32764	
380	0	31840	38000	32760	32768	
381	0	31968	38040	32756	32756	
382	0	32016	38028	32768	32764	
383	0	31972	38012	32756	32768	
384	0	31896	38016	32764	32764	
385	0	31834	37996	32748	32760	
386	0	31804	38004	32744	32766	
387	0	31838	38008	32748	32768	
388	0	31912	38000	32756	32768	
389	0	31960	37984	32760	32776	
390	0	31944	37984	32752	32768	
391	0	31908	37988	32760	32764	
392	0	31896	38016	32752	32772	
393	0	31872	38020	32764	32760	
394	0	31804	38016	32762	32756	
395	0	31752	38016	32772	32760	
396	0	31596	38000	32770	32752	
397	0	31456	38004	32764	32768	
398	0	31432	37984	32768	32768	
399	0	31448	37996	32762	32752	
400	0	31560	37992	32772	32760	
401	0	31682	37976	32780	32756	
402	0	31744	37978	32776	32760	
403	0	31744	37988	32768	32744	
404	0	31744	37992	32760	32744	
405	0	31777	37976	32760	32744	
406	0	31792	37988	32760	32756	
407	0	31746	38012	32764	32768	
408	0	31692	37996	32752	32768	
409	0	31684	38016	32762	32760	
410	0	31729	38008	32772	32756	
411	0	31772	37988	32776	32760	
412	0	31704	38000	32760	32757	
413	0	31602	37976	32760	32752	
414	0	31476	37984	32752	32752	
415	0	31400	37988	32768	32736	
416	0	31362	38000	32752	32746	
417	0	31292	37996	32744	32752	
418	0	31204	38024	32740	32766	
419	0	31212	38032	32752	32752	
420	0	31240	38016	32768	32748	
421	0	31352	38016	32752	32752	
422	0	31502	38008	32756	32744	
423	0	31564	37992	32748	32756	
424	0	31492	38000	32752	32746	
425	0	31384	37996	32752	32754	
426	0	31232	37986	32754	32748	
427	0	31064	37992	32752	32756	
428	0	30848	37998	32760	32752	
429	0	30604	37988	32748	32754	
430	0	30360	37976	32756	32752	
431	0	30058	37980	32760	32744	
432	0	29724	37989	32760	32756	
433	0	29404	38004	32748	32760	
434	0	29208	38008	32760	32752	
435	0	29104	37988	32748	32752	
436	0	29016	38016	32738	32756	
437	0	28932	38010	32736	32764	
438	0	28904	37984	32746	32764	
439	0	28986	37992	32740	32760	
440	0	29104	37984	32744	32760	
441	0	29234	37996	32728	32768	
442	0	29464	38004	32752	32752	
443	0	29854	37992	32756	32740	
444	0	30228	37988	32744	32744	
445	0	30600	37996	32748	32740	
446	0	30952	38012	32736	32744	
447	0	31296	38016	32732	32740	
448	0	31610	38008	32736	32752	
449	0	31976	38008	32748	32744	
450	0	32452	38024	32738	32736	
451	0	32984	38000	32736	32736	
452	0	33513	38016	32748	32752	
453	0	34028	38018	32752	32748	
454	0	34608	38016	32744	32744	
455	0	35216	38016	32732	32756	
456	0	35892	38040	32736	32760	
457	0	36756	38032	32738	32764	
458	0	37696	38016	32744	32768	
459	0	38544	38016	32756	32764	
460	0	39348	38044	32752	32768	
461	0	40224	38052	32744	32760	
462	0	41192	38032	32752	32756	
463	0	42260	38024	32764	32752	
464	0	43372	38016	32744	32752	
465	0	44344	38016	32736	32748	
466	0	45128	38016	32756	32744	
467	0	45776	37996	32748	32754	
468	0	46412	38020	32748	32764	
469	0	47136	38004	32748	32762	
470	0	47752	38028	32738	32760	
471	0	48120	38020	32730	32760	
472	0	48072	38002	32736	32762	
473	0	47664	38004	32748	32756	
474	0	47068	38000	32756	32764	
475	0	46304	38000	32772	32756	
476	0	45450	38004	32768	32756	
477	0	44584	38016	32760	32760	
478	0	43700	38018	32760	32760	
479	0	42800	38016	32752	32744	
480	0	41984	38016	32760	32748	
481	0	41170	38016	32744	32740	
482	0	40264	38016	32752	32740	
483	0	39304	38020	32762	32760	
484	0	38264	38000	32776	32768	
485	0	37116	38004	32772	32772	
486	0	35872	37992	32768	32765	
487	0	34660	37996	32762	32788	
488	0	33584	37992	32760	32778	
489	0	32712	38000	32768	32792	
490	0	31952	37984	32762	32784	
491	0	31240	37976	32758	32780	
492	0	30568	38000	32760	32776	
493	0	29908	38016	32772	32764	
494	0	29376	38016	32760	32768	
495	0	29020	38012	32770	32764	
496	0	28852	38000	32768	32768	
497	0	28804	38004	32764	32770	
498	0	28800	38018	32758	32776	
499	0	28832	38016	32746	32784	
500	0	28884	38008	32736	32788	
501	0	29056	38008	32736	32788	
502	0	29288	38016	32748	32778	
503	0	29472	38000	32764	32768	
504	0	29728	38004	32764	32760	
505	0	30080	38000	32756	32760	
506	0	30420	38004	32746	32768	
507	0	30664	37992	32736	32772	
508	0	30816	38016	32736	32772	
509	0	30912	37982	32736	32768	
510	0	30980	38008	32728	32772	
511	0	31076	38008	32740	32768	
512	0	31120	38008	32752	32768	
513	0	31120	38004	32756	32770	
514	0	31108	37996	32756	32768	
515	0	31041	38008	32752	32760	
516	0	30976	38016	32760	32764	
517	0	30938	37992	32756	32762	
518	0	30864	37996	32748	32762	
519	0	30728	38000	32752	32752	
520	0	30628	38000	32760	32752	
521	0	30608	37980	32768	32760	
522	0	30636	37984	32752	32768	
523	0	30676	38000	32748	32768	
524	0	30740	38008	32736	32768	
525	0	30802	37984	32740	32760	
526	0	30848	37992	32752	32746	
527	0	30804	38000	32752	32760	
528	0	30728	38004	32744	32760	
529	0	30728	38000	32744	32752	
530	0	30764	38004	32748	32760	
531	0	30744	38000	32752	32752	
532	0	30712	37992	32752	32756	
533	0	30724	38000	32750	32760	
534	0	30692	37988	32744	32752	
535	0	30664	38000	32748	32764	
536	0	30660	37992	32736	32768	
537	0	30666	37992	32752	32752	
538	0	30740	37988	32748	32748	
539	0	30792	38004	32760	32752	
540	0	30808	37994	32746	32756	
541	0	30744	37968	32756	32744	
542	0	30636	37988	32752	32738	
543	0	30528	38000	32752	32744	
544	0	30460	37976	32752	32752	
545	0	30528	37980	32748	32760	
546	0	30560	37972	32752	32752	
547	0	30510	37972	32744	32752	
548	0	30500	37996	32740	32756	
549	0	30536	38016	32736	32752	
550	0	30592	38000	32752	32746	
551	0	30656	38016	32746	32752	
552	0	30648	38000	32754	32744	
553	0	30617	37984	32752	32752	
554	0	30704	37992	32748	32752	
555	0	30776	38028	32768	32752	
556	0	30820	38044	32756	32752	
557	0	30868	38028	32756	32760	
558	0	30904	38032	32772	32752	
559	0	30976	38032	32768	32752	
560	0	31072	38024	32764	32764	
561	0	31160	38008	32756	32756	
562	0	31200	38008	32768	32756	
563	0	31200	38004	32752	32748	
564	0	31296	38000	32760	32744	
565	0	31368	37992	32768	32748	
566	0	31426	37984	32768	32752	
567	0	31509	37984	32756	32752	
568	0	31562	38010	32752	32760	
569	0	31536	37994	32760	32768	
570	0	31524	37992	32772	32754	
571	0	31536	38008	32760	32768	
572	0	31496	38000	32752	32756	
573	0	31424	37984	32768	32752	
574	0	31372	37984	32776	32754	
575	0	31296	37998	32760	32760	
576	0	31224	38016	32760	32756	
577	0	31220	37996	32748	32756	
578	0	31328	38020	32744	32768	
579	0	31428	38006	32736	32780	
580	0	31484	38016	32756	32774	
581	0	31508	38008	32752	32776	
582	0	31536	38016	32752	32784	
583	0	31552	38000	32756	32756	
584	0	31584	37996	32768	32760	
585	0	31593	37992	32760	32768	
586	0	31604	38000	32752	32776	
587	0	31640	38000	32756	32772	
588	0	31656	38000	32760	32772	
589	0	31652	38016	32764	32768	
590	0	31660	37996	32752	32772	
591	0	31692	37984	32768	32776	
592	0	31652	37980	32760	32776	
593	0	31596	37968	32776	32752	
594	0	31536	37984	32768	32764	
595	0	31510	37992	32748	32780	
596	0	31497	37992	32748	32778	
597	0	31448	38004	32752	32768	
598	0	31364	37992	32760	32764	
599	0	31344	37984	32760	32756	
600	0	31340	38008	32762	32748	
601	0	31348	38008	32760	32756	
602	0	31400	38024	32764	32752	
603	0	31480	38016	32748	32752	
604	0	31600	38020	32760	32752	
605	0	31716	38024	32752	32768	
606	0	31778	38020	32744	32760	
607	0	31794	38016	32752	32776	
608	0	31884	38016	32752	32768	
609	0	31930	38008	32740	32764	
610	0	31942	38004	32744	32768	
611	0	32004	38008	32752	32764	
612	0	32012	38008	32752	32760	
613	0	31978	38010	32752	32776	
614	0	31992	38004	32764	32760	
615	0	32032	38016	32756	32756	
616	0	32068	38020	32752	32760	
617	0	32008	38008	32748	32760	
618	0	31968	38016	32752	32764	
619	0	32000	38008	32760	32756	
620	0	32048	38028	32756	32770	
621	0	32058	38028	32752	32760	
622	0	31984	38016	32748	32748	
623	0	31944	37996	32760	32748	
624	0	32012	38016	32768	32756	
625	0	32128	38008	32772	32756	
626	0	32228	37988	32772	32760	
627	0	32282	38000	32762	32756	
628	0	32344	38008	32776	32760	
629	0	32416	38016	32772	32768	
630	0	32488	38016	32780	32756	
631	0	32500	38016	32760	32768	
632	0	32444	38040	32768	32756	
633	0	32344	38024	32768	32776	
634	0	32308	38028	32764	32768	
635	0	32320	38032	32752	32754	
636	0	32420	38032	32748	32760	
637	0	32552	38016	32752	32760	
638	0	32672	38016	32762	32760	
639	0	32724	38016	32756	32768	
640	0	32744	38024	32744	32768	
641	0	32720	38028	32760	32760	
642	0	32722	38000	32764	32756	
643	0	32796	37992	32756	32760	
644	0	32844	37996	32756	32754	
645	0	32876	38000	32764	32762	
646	0	32912	38016	32760	32768	
647	0	32932	38004	32752	32768	
648	0	32968	38016	32748	32764	
649	0	32986	38008	32746	32768	
650	0	33012	37989	32756	32760	
651	0	33092	37988	32764	32760	
652	0	33160	37990	32764	32756	
653	0	33172	37988	32776	32756	
654	0	33170	37984	32760	32752	
655	0	33188	37992	32762	32752	
656	0	33200	38004	32762	32752	
657	0	33176	38000	32772	32752	
658	0	33184	38016	32768	32760	
659	0	33212	38032	32756	32756	
660	0	33225	38020	32760	32752	
661	0	33208	38016	32768	32754	
662	0	33220	38016	32780	32752	
663	0	33273	38016	32768	32756	
664	0	33328	37984	32772	32760	
665	0	33308	37976	32768	32772	
666	0	33304	37996	32776	32780	
667	0	33328	38008	32772	32768	
668	0	33336	38000	32772	32764	
669	0	33368	38004	32776	32756	
670	0	33432	37992	32784	32752	
671	0	33420	37984	32768	32756	
672	0	33408	38008	32760	32772	
673	0	33372	38000	32766	32776	
674	0	33348	38008	32768	32772	
675	0	33308	38004	32764	32760	
676	0	33264	38024	32762	32752	
677	0	33208	38016	32760	32768	
678	0	33256	38024	32768	32756	
679	0	33424	38016	32768	32748	
680	0	33544	38000	32756	32752	
681	0	33672	37992	32748	32760	
682	0	33760	37976	32756	32760	
683	0	33828	38000	32748	32764	
684	0	33860	38008	32756	32768	
685	0	33832	38004	32756	32776	
686	0	33792	37992	32744	32776	
687	0	33792	38004	32736	32780	
688	0	33816	38000	32746	32772	
689	0	33888	38008	32736	32772	
690	0	33948	38016	32728	32768	
691	0	33972	38016	32730	32772	
692	0	34056	38024	32744	32776	
693	0	34162	38008	32748	32768	
694	0	34216	37992	32744	32776	
695	0	34208	38004	32744	32768	
696	0	34234	38004	32754	32772	
697	0	34284	38020	32748	32764	
698	0	34284	38004	32764	32776	
699	0	34296	38000	32760	32780	
700	0	34336	37996	32756	32780	
701	0	34276	38008	32748	32768	
702	0	34224	38016	32752	32768	
703	0	34288	38020	32768	32768	
704	0	34352	38000	32752	32772	
705	0	34404	38032	32764	32772	
706	0	34564	38024	32760	32764	
707	0	34712	37996	32768	32768	
708	0	34808	38000	32768	32768	
709	0	34880	38024	32760	32772	
710	0	34864	38008	32756	32784	
711	0	34866	38000	32756	32788	
712	0	34908	38016	32760	32794	
713	0	34922	38016	32748	32792	
714	0	34916	38016	32768	32784	
715	0	34928	38028	32748	32792	
716	0	34984	38000	32752	32796	
717	0	35028	38004	32756	32794	
718	0	35104	37992	32760	32772	
719	0	35164	38000	32756	32772	
720	0	35264	38008	32766	32776	
721	0	35300	37992	32760	32780	
722	0	35372	38000	32760	32768	
723	0	35464	38016	32744	32774	
724	0	35472	38008	32752	32772	
725	0	35408	38004	32762	32776	
726	0	35328	38004	32748	32764	
727	0	35328	38024	32768	32768	
728	0	35312	38024	32760	32764	
729	0	35288	38016	32768	32772	
730	0	35284	38024	32780	32776	
731	0	35276	38008	32756	32768	
732	0	35312	38010	32756	32772	
733	0	35412	38016	32764	32784	
734	0	35492	38032	32764	32784	
735	0	35584	38026	32760	32796	
736	0	35664	38032	32769	32776	
737	0	35744	38048	32756	32792	
738	0	35768	38056	32768	32792	
739	0	35800	38020	32768	32800	
740	0	35816	38016	32756	32788	
741	0	35820	38008	32752	32792	
742	0	35856	38016	32770	32784	
743	0	35908	38000	32760	32792	
744	0	35968	37996	32768	32796	
745	0	36056	38016	32780	32792	
746	0	36144	38016	32784	32782	
747	0	36192	37992	32780	32792	
748	0	36192	38000	32788	32784	
749	0	36204	38000	32780	32792	
750	0	36204	37992	32785	32784	
751	0	36148	37996	32770	32784	
752	0	36072	38004	32772	32776	
753	0	36004	38004	32776	32776	
754	0	36000	38016	32768	32777	
755	0	35968	38004	32764	32776	
756	0	35988	38012	32768	32784	
757	0	35968	38000	32768	32780	
758	0	36000	38016	32768	32776	
759	0	36024	37992	32772	32780	
760	0	36078	38000	32776	32784	
761	0	36100	38016	32768	32768	
762	0	36136	38016	32784	32768	
763	0	36108	38000	32784	32784	
764	0	36064	38004	32788	32780	
765	0	36048	38016	32784	32788	
766	0	36068	38008	32792	32788	
767	0	36080	38004	32786	32792	
768	0	36072	38008	32796	32768	
769	0	36020	37968	32788	32768	
770	0	35984	38000	32772	32760	
771	0	36016	38004	32786	32776	
772	0	36044	38008	32784	32792	
773	0	36072	38008	32788	32794	
774	0	36108	38000	32768	32772	
775	0	36112	38004	32768	32772	
776	0	36120	38020	32768	32768	
777	0	36064	38016	32764	32744	
778	0	36020	38016	32764	32744	
779	0	36008	38010	32752	32738	
780	0	35960	37984	32760	32740	
781	0	35856	38020	32764	32748	
782	0	35776	38040	32752	32756	
783	0	35706	38042	32764	32760	
784	0	35626	38028	32762	32760	
785	0	35528	38032	32752	32756	
786	0	35480	38016	32768	32752	
787	0	35396	38024	32760	32776	
788	0	35304	38026	32762	32764	
789	0	35168	38064	32780	32762	
790	0	35034	38032	32774	32756	
791	0	34960	38028	32788	32760	
792	0	34880	38024	32776	32752	
793	0	34801	38032	32768	32752	
794	0	34728	38028	32760	32756	
795	0	34660	38032	32748	32768	
796	0	34600	38044	32756	32768	
797	0	34500	38016	32756	32782	
798	0	34408	37990	32756	32792	
799	0	34328	38020	32756	32780	
800	0	34228	38026	32752	32780	
801	0	34112	38002	32756	32792	
802	0	34028	37996	32764	32788	
803	0	33968	38000	32756	32784	
804	0	33928	38020	32760	32792	
805	0	33848	38016	32770	32792	
806	0	33800	38008	32780	32772	
807	0	33720	38008	32772	32768	
808	0	33636	38016	32760	32780	
809	0	33540	37984	32772	32792	
810	0	33472	37992	32764	32780	
811	0	33388	38004	32756	32788	
812	0	33316	38000	32760	32796	
813	0	33234	38008	32752	32796	
814	0	33132	38020	32752	32800	
815	0	33032	38016	32752	32800	
816	0	32940	38020	32752	32792	
817	0	32820	38032	32760	32784	
818	0	32722	38008	32752	32800	
819	0	32660	38016	32744	32792	
820	0	32602	38024	32752	32792	
821	0	32532	38004	32746	32794	
822	0	32456	38016	32752	32792	
823	0	32336	38016	32752	32784	
824	0	32288	38016	32760	32780	
825	0	32292	38000	32760	32784	
826	0	32228	37994	32760	32782	
827	0	32112	38001	32762	32776	
828	0	31984	38008	32768	32784	
829	0	31856	37988	32760	32780	
830	0	31764	37984	32768	32776	
831	0	31688	37994	32764	32768	
832	0	31596	37988	32754	32778	
833	0	31452	37994	32768	32768	
834	0	31308	37992	32752	32780	
835	0	31197	37984	32762	32772	
836	0	31120	37972	32744	32778	
837	0	31040	37992	32748	32768	
838	0	30952	38004	32756	32780	
839	0	30853	38016	32728	32808	
840	0	30848	38020	32700	32732	
841	0	30956	38032	32686	32656	
842	0	31128	38032	32680	32604	
843	0	31178	38036	32696	32644	
844	0	31152	38008	32728	32668	
845	0	31156	38004	32748	32682	
846	0	31144	38000	32762	32692	
847	0	31156	37992	32780	32716	
848	0	31120	37970	32788	32740	
849	0	31013	37978	32792	32760	
850	0	30960	37978	32792	32800	
851	0	30992	37972	32780	32816	
852	0	31014	37972	32776	32840	
853	0	30984	37988	32756	32856	
854	0	30932	38008	32764	32850	
855	0	30860	38018	32768	32850	
856	0	30804	38040	32760	32832	
857	0	30792	38032	32772	32808	
858	0	30864	38036	32760	32810	
859	0	30920	38000	32752	32784	
860	0	30936	37992	32752	32776	
861	0	30968	38012	32756	32760	
862	0	31008	37986	32748	32772	
863	0	31026	38000	32748	32764	
864	0	30992	38000	32768	32760	
865	0	30920	38016	32778	32760	
866	0	30852	38016	32760	32768	
867	0	30848	38000	32768	32764	
868	0	30828	38004	32764	32760	
869	0	30738	37984	32756	32770	
870	0	30750	37994	32748	32772	
871	0	30840	38032	32736	32776	
872	0	30876	38020	32736	32764	
873	0	30944	38008	32744	32768	
874	0	31008	38000	32736	32784	
875	0	31040	38008	32738	32764	
876	0	31008	38016	32738	32768	
877	0	31024	38016	32740	32768	
878	0	31100	38032	32762	32754	
879	0	31200	38036	32764	32744	
880	0	31280	38032	32756	32744	
881	0	31298	38024	32752	32760	
882	0	31280	38008	32752	32760	
883	0	31288	38018	32760	32752	
884	0	31296	37996	32756	32754	
885	0	31308	37988	32768	32752	
886	0	31312	37984	32760	32752	
887	0	31312	38016	32752	32752	
888	0	31333	38016	32752	32764	
889	0	31348	38028	32760	32760	
890	0	31348	38018	32776	32752	
891	0	31376	38008	32764	32776	
892	0	31436	38016	32764	32784	
893	0	31498	38024	32772	32788	
894	0	31536	38028	32780	32784	
895	0	31600	37988	32768	32800	
896	0	31680	37988	32772	32796	
897	0	31706	37994	32772	32782	
898	0	31692	38000	32772	32792	
899	0	31696	37992	32772	32808	
900	0	31680	38000	32764	32812	
901	0	31656	38020	32780	32800	
902	0	31632	38000	32772	32804	
903	0	31612	38000	32776	32800	
904	0	31628	38000	32768	32792	
905	0	31616	38016	32780	32784	
906	0	31530	38000	32768	32796	
907	0	31412	37992	32776	32792	
908	0	31360	37992	32772	32792	
909	0	31340	38008	32776	32772	
910	0	31344	37988	32772	32776	
911	0	31386	37988	32776	32772	
912	0	31428	37992	32768	32776	
913	0	31458	38020	32760	32776	
914	0	31468	38004	32768	32772	
915	0	31488	38012	32764	32780	
916	0	31544	38020	32752	32772	
917	0	31592	38008	32752	32776	
918	0	31584	38016	32764	32764	
919	0	31572	38020	32752	32768	
920	0	31532	37996	32738	32770	
921	0	31472	37992	32744	32776	
922	0	31468	37996	32752	32768	
923	0	31544	37984	32756	32772	
924	0	31592	37988	32752	32768	
925	0	31608	38004	32752	32760	
926	0	31592	38016	32746	32762	
927	0	31608	37992	32752	32754	
928	0	31688	37992	32752	32762	
929	0	31748	37992	32768	32760	
930	0	31816	38000	32756	32772	
931	0	31856	37996	32768	32768	
932	0	31852	38008	32752	32776	
933	0	31808	38008	32748	32768	
934	0	31704	38008	32762	32768	
935	0	31668	38000	32756	32768	
936	0	31732	38012	32744	32768	
937	0	31780	38016	32754	32768	
938	0	31788	38024	32746	32768	
939	0	31792	38010	32760	32780	
940	0	31812	37996	32762	32768	
941	0	31828	38008	32744	32760	
942	0	31860	38016	32746	32777	
943	0	31872	38016	32736	32776	
944	0	31880	38004	32756	32776	
945	0	31916	38000	32768	32768	
946	0	31952	37992	32760	32752	
947	0	32032	37984	32764	32768	
948	0	32084	38000	32762	32772	
949	0	32052	38004	32750	32768	
950	0	31964	38008	32744	32772	
951	0	31972	37988	32740	32762	
952	0	31948	37984	32752	32762	
953	0	31872	37992	32744	32764	
954	0	31824	37992	32752	32760	
955	0	31898	37992	32756	32760	
956	0	32056	37984	32762	32764	
957	0	32192	37964	32768	32772	
958	0	32264	37984	32776	32760	
959	0	32324	37984	32760	32776	
960	0	32376	37976	32768	32760	
961	0	32424	37982	32744	32776	
962	0	32488	37984	32760	32762	
963	0	32568	37984	32760	32756	
964	0	32568	37996	32752	32756	
965	0	32508	38000	32772	32748	
966	0	32452	38004	32766	32768	
967	0	32384	38016	32766	32780	
968	0	32320	38024	32768	32784	
969	0	32308	38010	32772	32772	
970	0	32276	38016	32772	32788	
971	0	32228	38004	32748	32788	
972	0	32200	38024	32760	32792	
973	0	32220	38008	32768	32776	
974	0	32204	38024	32760	32800	
975	0	32252	38016	32756	32796	
976	0	32344	37992	32764	32798	
977	0	32464	37984	32760	32792	
978	0	32556	37984	32780	32788	
979	0	32576	38000	32784	32774	
980	0	32532	38012	32760	32792	
981	0	32524	38012	32760	32784	
982	0	32544	37996	32760	32788	
983	0	32600	37976	32744	32778	
984	0	32632	37994	32756	32772	
985	0	32652	38004	32762	32780	
986	0	32656	38000	32768	32784	
987	0	32696	38004	32768	32776	
988	0	32768	38000	32760	32780	
989	0	32816	38000	32760	32776	
990	0	32812	38000	32772	32776	
991	0	32794	38000	32756	32784	
992	0	32716	38000	32760	32768	
993	0	32592	38020	32760	32772	
994	0	32560	38008	32760	32800	
995	0	32584	38024	32768	32780	
996	0	32628	38028	32772	32772	
997	0	32652	38020	32768	32768	
998	0	32704	38032	32780	32772	
999	0	32762	38028	32760	32780	
1000	0	32808	38032	32752	32780	
1001	0	32884	38024	32752	32768	
1002	0	32944	38016	32764	32760	
1003	0	32968	38016	32776	32760	
1004	0	32938	38032	32768	32760	
1005	0	32904	38024	32764	32772	
1006	0	32896	38021	32768	32784	
1007	0	32900	38016	32756	32780	
1008	0	32868	38004	32760	32790	
1009	0	32874	38008	32760	32794	
1010	0	32840	38020	32772	32780	
1011	0	32792	38016	32768	32788	
1012	0	32796	38008	32768	32792	
1013	0	32764	38008	32776	32780	
1014	0	32760	38004	32762	32796	
1015	0	32772	38008	32762	32792	
1016	0	32784	38008	32776	32784	
1017	0	32716	38024	32770	32784	
1018	0	32652	38018	32768	32788	
1019	0	32680	38000	32760	32788	
1020	0	32736	38000	32756	32784	
1021	0	32772	38000	32752	32800	
1022	0	32816	37992	32748	32800	
1023	0	32904	38016	32752	32796	
1024	0	33008	38000	32752	32792	
1025	0	33056	38012	32752	32804	
1026	0	32996	38016	32764	32800	
1027	0	32928	38016	32768	32800	
1028	0	32868	38016	32776	32800	
1029	0	32834	38016	32780	32792	
1030	0	32752	38024	32768	32784	
1031	0	32664	38024	32776	32788	
1032	0	32668	38016	32788	32776	
1033	0	32696	38012	32794	32784	
1034	0	32822	37994	32788	32768	
1035	0	32900	37992	32784	32770	
1036	0	32872	37988	32776	32772	
1037	0	32824	37976	32764	32776	
1038	0	32800	37984	32756	32788	
1039	0	32770	37998	32752	32800	
1040	0	32726	37996	32756	32784	
1041	0	32724	37992	32776	32784	
1042	0	32732	37996	32760	32776	
1043	0	32800	38016	32762	32784	
1044	0	32896	38016	32752	32800	
1045	0	32936	38016	32760	32792	
1046	0	32912	38000	32758	32780	
1047	0	32884	38016	32764	32780	
1048	0	32896	38000	32760	32798	
1049	0	32932	37992	32768	32800	
1050	0	32936	38016	32746	32816	
1051	0	32888	38024	32748	32808	
1052	0	32804	38020	32760	32816	
1053	0	32708	38020	32760	32800	
1054	0	32644	38008	32760	32788	
1055	0	32656	38008	32768	32772	
1056	0	32708	38016	32768	32800	
1057	0	32756	37992	32782	32784	
1058	0	32792	38008	32776	32776	
1059	0	32800	38000	32776	32794	
1060	0	32784	37996	32778	32778	
1061	0	32832	38008	32772	32768	
1062	0	32876	38016	32768	32776	
1063	0	32928	37976	32780	32780	
1064	0	32950	37976	32776	32784	
1065	0	32996	38000	32764	32776	
1066	0	32996	38020	32765	32776	
1067	0	32960	38016	32776	32776	
1068	0	32945	38000	32764	32768	
1069	0	32948	37996	32760	32776	
1070	0	32906	38010	32772	32784	
1071	0	32816	38016	32776	32776	
1072	0	32848	38024	32780	32772	
1073	0	32936	38012	32760	32780	
1074	0	32972	38012	32764	32792	
1075	0	32956	38000	32768	32784	
1076	0	32930	37988	32768	32792	
1077	0	32944	38000	32768	32776	
1078	0	32994	38004	32772	32776	
1079	0	33154	38016	32768	32768	
1080	0	33328	38036	32764	32776	
1081	0	33420	38024	32772	32756	
1082	0	33428	38004	32772	32762	
1083	0	33396	38018	32760	32764	
1084	0	33346	38036	32768	32756	
1085	0	33312	38016	32752	32752	
1086	0	33280	37992	32772	32752	
1087	0	33216	37984	32784	32736	
1088	0	33164	38000	32778	32746	
1089	0	33152	37984	32780	32760	
1090	0	33136	38004	32762	32778	
1091	0	33120	37992	32760	32776	
1092	0	33058	37992	32768	32778	
1093	0	32952	37992	32772	32784	
1094	0	32908	38008	32764	32784	
1095	0	32848	38008	32748	32788	
1096	0	32780	37992	32756	32788	
1097	0	32776	37980	32756	32792	
1098	0	32724	37992	32752	32804	
1099	0	32672	37992	32772	32788	
1100	0	32720	38008	32756	32792	
1101	0	32840	38000	32764	32792	
1102	0	32962	38008	32760	32792	
1103	0	33048	38000	32768	32800	
1104	0	33116	38016	32760	32788	
1105	0	33144	37996	32760	32792	
1106	0	33114	38002	32772	32784	
1107	0	33088	38000	32776	32794	
1108	0	33048	38016	32784	32780	
1109	0	33024	37996	32776	32781	
1110	0	33012	37968	32780	32772	
1111	0	32984	37984	32760	32768	
1112	0	32976	37996	32760	32768	
1113	0	32944	38000	32764	32772	
1114	0	32936	38024	32760	32784	
1115	0	32922	38016	32744	32792	
1116	0	32936	38004	32760	32794	
1117	0	32972	38000	32768	32796	
1118	0	32996	37984	32768	32792	
1119	0	33000	37988	32776	32784	
1120	0	32980	38016	32780	32784	
1121	0	32976	38008	32776	32784	
1122	0	33024	37984	32772	32784	
1123	0	33064	37992	32772	32784	
1124	0	33060	38002	32768	32784	
1125	0	33006	38016	32768	32788	
1126	0	32992	38016	32762	32804	
1127	0	33016	38016	32744	32816	
1128	0	33052	38018	32742	32812	
1129	0	33064	38032	32764	32792	
1130	0	33044	38020	32772	32800	
1131	0	33024	38016	32772	32788	
1132	0	33012	38024	32768	32780	
1133	0	33044	38020	32770	32784	
1134	0	33104	38000	32772	32792	
1135	0	33124	37992	32760	32794	
1136	0	33120	38004	32760	32796	
1137	0	33058	38016	32760	32796	
1138	0	33044	38022	32756	32792	
1139	0	33128	38008	32752	32780	
1140	0	33224	38016	32752	32780	
1141	0	33300	38004	32762	32782	
1142	0	33280	37984	32768	32780	
1143	0	33248	38000	32752	32780	
1144	0	33168	38013	32760	32792	
1145	0	33064	37992	32768	32788	
1146	0	33028	37968	32764	32782	
1147	0	33000	37986	32768	32792	
1148	0	32964	37984	32776	32764	
1149	0	32920	37992	32772	32776	
1150	0	32896	38004	32766	32784	
1151	0	32869	38008	32772	32760	
1152	0	32884	38028	32768	32768	
1153	0	32920	38004	32768	32780	
1154	0	32928	37988	32786	32770	
1155	0	32932	38000	32780	32780	
1156	0	32924	37996	32776	32782	
1157	0	32896	37992	32784	32776	
1158	0	32856	38008	32768	32772	
1159	0	32808	38028	32756	32784	
1160	0	32760	38016	32768	32768	
1161	0	32696	37996	32768	32760	
1162	0	32656	37980	32768	32764	
1163	0	32688	37984	32772	32756	
1164	0	32740	37984	32780	32740	
1165	0	32772	37980	32772	32752	
1166	0	32840	37976	32776	32764	
1167	0	32912	38016	32760	32770	
1168	0	32954	38008	32768	32772	
1169	0	32920	38016	32768	32772	
1170	0	32804	38008	32776	32768	
1171	0	32732	38020	32764	32764	
1172	0	32708	38004	32764	32784	
1173	0	32716	37996	32768	32770	
1174	0	32720	37996	32768	32762	
1175	0	32764	38000	32760	32776	
1176	0	32856	37984	32768	32764	
1177	0	32896	38000	32748	32768	
1178	0	32912	38040	32756	32772	
1179	0	32954	38056	32749	32776	
1180	0	33040	38024	32760	32768	
1181	0	33076	38016	32748	32780	
1182	0	33072	38000	32752	32780	
1183	0	33048	37992	32748	32792	
1184	0	33016	38008	32756	32784	
1185	0	32984	38000	32744	32776	
1186	0	32944	37992	32754	32776	
1187	0	32932	38000	32748	32784	
1188	0	33008	37984	32740	32792	
1189	0	33040	38000	32728	32796	
1190	0	33024	38008	32736	32784	
1191	0	32928	38016	32760	32784	
1192	0	32864	38016	32764	32792	
1193	0	32800	38024	32768	32788	
1194	0	32728	38008	32770	32780	
1195	0	32696	38016	32780	32768	
1196	0	32692	37992	32780	32768	
1197	0	32720	38024	32778	32784	
1198	0	32728	38004	32760	32780	
1199	0	32732	38016	32756	32780	
1200	0	32708	38016	32756	32768	
1201	0	32672	38016	32752	32786	
1202	0	32660	38016	32752	32788	
1203	0	32666	38000	32760	32776	
1204	0	32752	38000	32760	32778	
1205	0	32862	37988	32768	32772	
1206	0	32908	37992	32774	32768	
1207	0	32912	37984	32768	32762	
1208	0	32840	37984	32762	32768	
1209	0	32856	37992	32776	32780	
1210	0	32928	37996	32776	32780	
1211	0	32908	38016	32760	32780	
1212	0	32896	38000	32744	32796	
1213	0	32864	38004	32752	32784	
1214	0	32872	38016	32768	32780	
1215	0	32908	38000	32768	32768	
1216	0	32940	38008	32772	32760	
1217	0	32932	38008	32760	32768	
1218	0	32920	37988	32768	32772	
1219	0	32904	37984	32760	32768	
1220	0	32880	37984	32760	32776	
1221	0	32896	37988	32768	32776	
1222	0	32904	37996	32776	32768	
1223	0	32944	38000	32760	32776	
1224	0	32948	37988	32754	32788	
1225	0	32880	37984	32752	32792	
1226	0	32800	37986	32768	32784	
1227	0	32764	37980	32760	32788	
1228	0	32768	38008	32778	32777	
1229	0	32796	38000	32784	32780	
1230	0	32744	38008	32768	32792	
1231	0	32696	38016	32748	32800	
1232	0	32652	38016	32740	32812	
1233	0	32644	38000	32764	32800	
1234	0	32736	38008	32752	32792	
1235	0	32788	37992	32752	32784	
1236	0	32816	38004	32754	32780	
1237	0	32846	38000	32756	32784	
1238	0	32856	38008	32764	32784	
1239	0	32844	38000	32762	32784	
1240	0	32888	38008	32768	32784	
1241	0	32916	38000	32768	32784	
1242	0	32888	37994	32756	32802	
1243	0	32928	38000	32768	32800	
1244	0	33060	37984	32776	32800	
1245	0	33168	38024	32778	32800	
1246	0	33216	38026	32770	32804	
1247	0	33224	38028	32768	32792	
1248	0	33200	38000	32784	32780	
1249	0	33144	37980	32772	32780	
1250	0	33114	37996	32760	32796	
1251	0	33056	37988	32772	32794	
1252	0	33024	38000	32784	32788	
1253	0	33020	38008	32784	32788	
1254	0	32992	38016	32776	32788	
1255	0	32952	38016	32772	32784	
1256	0	32916	38016	32768	32776	
1257	0	32900	38008	32764	32776	
1258	0	32916	38004	32764	32784	
1259	0	32928	38016	32770	32784	
1260	0	32944	38016	32768	32784	
1261	0	32976	37996	32768	32784	
1262	0	33056	38020	32762	32780	
1263	0	33180	38000	32764	32784	
1264	0	33250	37992	32744	32792	
1265	0	33224	37976	32756	32776	
1266	0	33210	37988	32768	32780	
1267	0	33216	37996	32764	32780	
1268	0	33172	38002	32760	32788	
1269	0	33164	38016	32764	32784	
1270	0	33152	38028	32754	32784	
1271	0	33124	38032	32754	32788	
1272	0	33040	38020	32756	32800	
1273	0	32976	37984	32768	32792	
1274	0	32904	37992	32738	32800	
1275	0	32816	38016	32746	32808	
1276	0	32728	38016	32776	32800	
1277	0	32704	38016	32776	32800	
1278	0	32716	38010	32760	32788	
1279	0	32728	38000	32768	32796	
1280	0	32700	37984	32776	32780	
1281	0	32672	37988	32772	32788	
1282	0	32660	37984	32768	32792	
1283	0	32704	37988	32760	32800	
1284	0	32792	38004	32754	32792	
1285	0	32928	38000	32756	32788	
1286	0	33008	37980	32752	32792	
1287	0	33040	37992	32752	32788	
1288	0	33076	38000	32732	32800	
1289	0	33156	38008	32732	32816	
1290	0	33184	38016	32756	32804	
1291	0	33184	37996	32744	32800	
1292	0	33184	37982	32760	32800	
1293	0	33164	37992	32760	32796	
1294	0	33104	37984	32778	32776	
1295	0	33032	37964	32768	32772	
1296	0	33016	37968	32768	32780	
1297	0	33020	37984	32770	32780	
1298	0	33016	37996	32768	32772	
1299	0	32980	38024	32760	32776	
1300	0	32972	38028	32748	32788	
1301	0	32992	38028	32748	32792	
1302	0	33032	38008	32756	32800	
1303	0	33052	37996	32772	32792	
1304	0	33000	37980	32768	32788	
1305	0	32876	37980	32768	32788	
1306	0	32868	37960	32768	32776	
1307	0	33000	37973	32760	32772	
1308	0	33074	37988	32772	32778	
1309	0	33048	37984	32776	32776	
1310	0	32988	37984	32768	32788	
1311	0	32920	37984	32780	32784	
1312	0	32856	37986	32768	32788	
1313	0	32792	37992	32770	32788	
1314	0	32752	37992	32768	32794	
1315	0	32756	38000	32764	32808	
1316	0	32844	37968	32760	32796	
1317	0	32842	37976	32768	32788	
1318	0	32804	37992	32770	32792	
1319	0	32834	37984	32756	32792	
1320	0	32896	37992	32756	32792	
1321	0	32948	37996	32752	32816	
1322	0	32992	38000	32752	32808	
1323	0	33016	37976	32764	32792	
1324	0	33032	37980	32772	32780	
1325	0	33072	38000	32780	32784	
1326	0	33088	38004	32776	32800	
1327	0	33108	38000	32784	32796	
1328	0	33098	38024	32776	32780	
1329	0	33088	38028	32784	32776	
1330	0	33100	38032	32778	32780	
1331	0	33120	38024	32768	32780	
1332	0	33152	38004	32765	32794	
1333	0	33096	38016	32780	32784	
1334	0	32972	38016	32772	32788	
1335	0	32960	38004	32760	32788	
1336	0	32954	38016	32776	32788	
1337	0	32940	38000	32772	32784	
1338	0	32930	37992	32756	32792	
1339	0	32904	38016	32752	32800	
1340	0	32880	38000	32764	32788	
1341	0	32904	38000	32752	32794	
1342	0	32928	37992	32756	32784	
1343	0	32912	37992	32752	32780	
1344	0	32918	37992	32752	32772	
1345	0	32968	37992	32744	32780	
1346	0	33012	37996	32748	32778	
1347	0	32990	38000	32760	32778	
1348	0	32962	38002	32776	32784	
1349	0	32952	38000	32770	32776	
1350	0	32960	37996	32768	32776	
1351	0	32968	37996	32772	32784	
1352	0	32992	37984	32772	32784	
1353	0	32960	38008	32776	32772	
1354	0	32916	38004	32768	32780	
1355	0	32896	38024	32768	32784	
1356	0	32912	38020	32768	32776	
1357	0	32936	38000	32764	32764	
1358	0	32936	38000	32768	32768	
1359	0	32906	37994	32768	32780	
1360	0	32888	37996	32764	32784	
1361	0	32880	37988	32768	32772	
1362	0	32896	37992	32764	32778	
1363	0	32936	37992	32752	32773	
1364	0	32936	37988	32754	32776	
1365	0	32912	37984	32752	32780	
1366	0	32918	38000	32750	32793	
1367	0	32936	38012	32752	32796	
1368	0	33004	38004	32748	32788	
1369	0	33102	38016	32740	32788	
1370	0	33120	38024	32740	32776	
1371	0	33064	38020	32764	32776	
1372	0	32980	38016	32756	32784	
1373	0	32864	38008	32754	32780	
1374	0	32812	38016	32752	32772	
1375	0	32800	38004	32768	32756	
1376	0	32832	37992	32760	32760	
1377	0	32824	37984	32764	32752	
1378	0	32764	38004	32752	32762	
1379	0	32720	38004	32756	32768	
1380	0	32736	38016	32760	32752	
1381	0	32845	38024	32754	32760	
1382	0	32960	38008	32756	32764	
1383	0	32992	38008	32752	32756	
1384	0	32946	38016	32746	32764	
1385	0	32920	38018	32756	32764	
1386	0	32968	38024	32746	32762	
1387	0	33024	38008	32756	32776	
1388	0	33018	38020	32760	32760	
1389	0	33008	38020	32756	32760	
1390	0	33024	38008	32756	32772	
1391	0	33064	38000	32754	32760	
1392	0	33064	38016	32760	32760	
1393	0	33088	38032	32768	32760	
1394	0	33089	38024	32772	32772	
1395	0	33088	38016	32768	32760	
1396	0	33016	38028	32760	32780	
1397	0	32928	38008	32760	32772	
1398	0	32852	38016	32760	32762	
1399	0	32824	38012	32752	32768	
1400	0	32770	37996	32754	32768	
1401	0	32744	37984	32768	32756	
1402	0	32736	38016	32776	32756	
1403	0	32784	38000	32772	32752	
1404	0	32820	38000	32776	32760	
1405	0	32856	38008	32768	32770	
1406	0	32864	38032	32764	32768	
1407	0	32904	38024	32756	32772	
1408	0	32904	38036	32768	32772	
1409	0	32928	38020	32768	32768	
1410	0	32928	38016	32778	32768	
1411	0	32912	38008	32772	32768	
1412	0	32902	37996	32780	32776	
1413	0	32870	38016	32756	32784	
1414	0	32780	38002	32776	32788	
1415	0	32704	38008	32766	32780	
1416	0	32698	37992	32772	32780	
1417	0	32696	37992	32760	32780	
1418	0	32640	38008	32768	32780	
1419	0	32624	38016	32764	32776	
1420	0	32688	38000	32768	32788	
1421	0	32736	37984	32768	32792	
1422	0	32764	37996	32762	32780	
1423	0	32786	38008	32760	32780	
1424	0	32800	38004	32756	32786	
1425	0	32816	38008	32752	32788	
1426	0	32844	38000	32762	32784	
1427	0	32856	38000	32768	32788	
1428	0	32940	38004	32769	32794	
1429	0	33028	38016	32768	32792	
1430	0	33108	38016	32764	32788	
1431	0	33124	38008	32760	32800	
1432	0	33168	38004	32764	32800	
1433	0	33212	38024	32760	32784	
1434	0	33172	38040	32752	32792	
1435	0	33180	38048	32764	32800	
1436	0	33184	38016	32762	32780	
1437	0	33210	38008	32768	32800	
1438	0	33232	38008	32760	32808	
1439	0	33228	38016	32762	32800	
1440	0	33202	38000	32760	32808	
1441	0	33168	38008	32760	32796	
1442	0	33186	37996	32760	32800	
1443	0	33184	38016	32760	32808	
1444	0	33146	38016	32744	32812	
1445	0	33152	38000	32744	32802	
1446	0	33136	38028	32748	32808	
1447	0	33080	38028	32760	32792	
1448	0	33064	38016	32760	32784	
1449	0	33124	38026	32754	32778	
1450	0	33172	38020	32756	32792	
1451	0	33196	38000	32760	32800	
1452	0	33192	38008	32756	32800	
1453	0	33184	38016	32768	32788	
1454	0	33172	38000	32772	32786	
1455	0	33165	38000	32772	32792	
1456	0	33220	38000	32760	32782	
1457	0	33260	38004	32760	32788	
1458	0	33304	38008	32760	32802	
1459	0	33382	38016	32760	32792	
1460	0	33480	38000	32756	32768	
1461	0	33572	38004	32760	32776	
1462	0	33672	38016	32768	32772	
1463	0	33826	38000	32772	32772	
1464	0	34000	38000	32772	32772	
1465	0	34144	38016	32778	32772	
1466	0	34232	38024	32768	32764	
1467	0	34232	38044	32768	32780	
1468	0	34196	38016	32756	32792	
1469	0	34128	38024	32744	32794	
1470	0	34100	38016	32752	32792	
1471	0	34064	37992	32768	32788	
1472	0	34036	37992	32764	32792	
1473	0	34056	38000	32760	32784	
1474	0	34104	38004	32764	32784	
1475	0	34148	38016	32756	32772	
1476	0	34108	38016	32768	32768	
1477	0	34016	38000	32764	32770	
1478	0	33928	37988	32764	32776	
1479	0	33916	37984	32764	32776	
1480	0	33980	37996	32772	32778	
1481	0	34032	37992	32756	32772	
1482	0	34072	37992	32760	32792	
1483	0	34116	37988	32768	32788	
1484	0	34176	37984	32768	32800	
1485	0	34164	37988	32768	32784	
1486	0	34080	37996	32768	32778	
1487	0	33940	38004	32760	32784	
1488	0	33782	38016	32760	32776	
1489	0	33696	38028	32768	32776	
1490	0	33656	38010	32760	32788	
1491	0	33658	38024	32756	32792	
1492	0	33640	38016	32756	32796	
1493	0	33642	38004	32756	32804	
1494	0	33628	38000	32768	32802	
1495	0	33616	38008	32768	32800	
1496	0	33656	38004	32782	32786	
1497	0	33728	38024	32772	32792	
1498	0	33832	37994	32772	32800	
1499	0	33904	38008	32776	32792	
1500	0	33888	38016	32772	32792	
1501	0	33896	38020	32768	32784	
1502	0	33944	38000	32762	32788	
1503	0	33994	37996	32773	32778	
1504	0	33972	38012	32784	32784	
1505	0	33960	38008	32776	32780	
1506	0	33924	38008	32764	32776	
1507	0	33882	37996	32760	32776	
1508	0	33836	38000	32760	32788	
1509	0	33732	38008	32768	32777	
1510	0	33696	38005	32772	32776	
1511	0	33712	37988	32776	32776	
1512	0	33672	38000	32776	32770	
1513	0	33572	38036	32776	32780	
1514	0	33436	38036	32768	32796	
1515	0	33388	38024	32776	32776	
1516	0	33356	38032	32768	32780	
1517	0	33344	38016	32768	32768	
1518	0	33284	38016	32764	32770	
1519	0	33138	38000	32760	32768	
1520	0	32940	38016	32772	32756	
1521	0	32730	38004	32772	32768	
1522	0	32592	37988	32780	32772	
1523	0	32520	37984	32776	32780	
1524	0	32480	37996	32760	32784	
1525	0	32560	38000	32764	32784	
1526	0	32640	37976	32748	32788	
1527	0	32704	37992	32764	32776	
1528	0	32772	38000	32760	32776	
1529	0	32868	38016	32752	32776	
1530	0	32944	37984	32752	32770	
1531	0	33000	37976	32756	32788	
1532	0	33016	37992	32748	32776	
1533	0	32952	37996	32760	32778	
1534	0	32864	38000	32764	32784	
1535	0	32808	38008	32752	32776	
1536	0	32728	38008	32744	32788	
1537	0	32616	38008	32748	32794	
1538	0	32536	38002	32752	32782	
1539	0	32492	38016	32752	32796	
1540	0	32466	38024	32760	32778	
1541	0	32480	38016	32752	32792	
1542	0	32536	38016	32756	32784	
1543	0	32568	38016	32756	32776	
1544	0	32536	38016	32764	32776	
1545	0	32540	38016	32762	32776	
1546	0	32520	38024	32752	32784	
1547	0	32484	38016	32760	32792	
1548	0	32424	38020	32766	32788	
1549	0	32360	38020	32772	32792	
1550	0	32320	38016	32764	32800	
1551	0	32328	38016	32760	32800	
1552	0	32312	38032	32776	32808	
1553	0	32280	38004	32762	32800	
1554	0	32228	38024	32760	32802	
1555	0	32224	38016	32752	32797	
1556	0	32256	38024	32748	32808	
1557	0	32272	38032	32762	32808	
1558	0	32304	38022	32744	32804	
1559	0	32340	38008	32748	32816	
1560	0	32328	38000	32746	32800	
1561	0	32284	37994	32752	32804	
1562	0	32288	38000	32764	32788	
1563	0	32364	38008	32752	32800	
1564	0	32472	38020	32754	32800	
1565	0	32520	38028	32764	32794	
1566	0	32474	38000	32772	32792	
1567	0	32408	37988	32760	32800	
1568	0	32356	38012	32756	32804	
1569	0	32340	38004	32764	32808	
1570	0	32356	38000	32752	32808	
1571	0	32340	38008	32756	32820	
1572	0	32280	37988	32768	32808	
1573	0	32224	37992	32776	32802	
1574	0	32140	37992	32780	32784	
1575	0	32064	37992	32788	32784	
1576	0	32000	38004	32794	32784	
1577	0	31948	37988	32780	32800	
1578	0	31872	37992	32784	32792	
1579	0	31880	38008	32780	32784	
1580	0	31892	38016	32780	32776	
1581	0	31856	38004	32768	32788	
1582	0	31808	38004	32752	32792	
1583	0	31720	37996	32760	32776	
1584	0	31576	37992	32768	32770	
1585	0	31392	37994	32760	32778	
1586	0	31164	37986	32768	32784	
1587	0	30832	38004	32761	32768	
1588	0	30504	37992	32756	32768	
1589	0	30176	38008	32760	32768	
1590	0	29924	38016	32776	32764	
1591	0	29824	38004	32760	32784	
1592	0	29736	38000	32760	32788	
1593	0	29672	38008	32768	32768	
1594	0	29676	38000	32768	32776	
1595	0	29768	38008	32770	32780	
1596	0	29880	37992	32764	32780	
1597	0	29984	38004	32760	32784	
1598	0	30184	38016	32760	32788	
1599	0	30480	38020	32758	32778	
1600	0	30756	37984	32760	32784	
1601	0	31092	38000	32752	32784	
1602	0	31420	38020	32752	32784	
1603	0	31748	38000	32756	32776	
1604	0	32104	38000	32760	32772	
1605	0	32464	38016	32762	32772	
1606	0	32816	38020	32768	32768	
1607	0	33244	38004	32760	32784	
1608	0	33700	38016	32756	32788	
1609	0	34304	38016	32768	32792	
1610	0	35040	38024	32762	32776	
1611	0	35816	38008	32768	32772	
1612	0	36576	37992	32760	32778	
1613	0	37392	38004	32764	32776	
1614	0	38260	38000	32772	32776	
1615	0	39148	38008	32760	32776	
1616	0	40104	37992	32760	32776	
1617	0	41090	38008	32768	32768	
1618	0	42072	38026	32768	32784	
1619	0	43040	38020	32760	32768	
1620	0	44056	38016	32756	32772	
1621	0	44992	38024	32744	32780	
1622	0	45724	38004	32752	32784	
1623	0	46228	38016	32748	32780	
1624	0	46736	38016	32752	32776	
1625	0	47392	38008	32764	32780	
1626	0	48064	38020	32760	32792	
1627	0	48452	38008	32768	32776	
1628	0	48488	38000	32760	32792	
1629	0	48224	38020	32765	32780	
1630	0	47648	38028	32768	32780	
1631	0	46912	38004	32764	32784	
1632	0	46112	38000	32776	32788	
1633	0	45324	38016	32776	32780	
1634	0	44552	38016	32776	32792	
1635	0	43680	38024	32768	32784	
1636	0	42796	38034	32764	32788	
1637	0	41912	38032	32760	32804	
1638	0	40960	38032	32754	32786	
1639	0	39972	38032	32756	32792	
1640	0	38928	38016	32768	32788	
1641	0	37784	38016	32776	32792	
1642	0	36554	37992	32768	32796	
1643	0	35312	38008	32768	32800	
1644	0	34208	38016	32784	32802	
1645	0	33237	37988	32784	32800	
1646	0	32456	37976	32776	32800	
1647	0	31788	37996	32780	32768	
1648	0	31196	37992	32760	32784	
1649	0	30624	37992	32760	32784	
1650	0	30176	38000	32744	32780	
1651	0	29864	37996	32752	32792	
1652	0	29644	38000	32760	32794	
1653	0	29462	37996	32752	32794	
1654	0	29321	38008	32776	32804	
1655	0	29312	38000	32764	32796	
1656	0	29392	37996	32768	32792	
1657	0	29528	37984	32772	32792	
1658	0	29700	37996	32748	32808	
1659	0	29868	38004	32760	32804	
1660	0	30000	38016	32756	32796	
1661	0	30160	38016	32772	32788	
1662	0	30432	38016	32776	32788	
1663	0	30676	37992	32776	32784	
1664	0	30834	38016	32776	32780	
1665	0	30976	38008	32772	32776	
1666	0	31148	38000	32768	32792	
1667	0	31242	38008	32768	32788	
1668	0	31360	38010	32770	32788	
1669	0	31388	37988	32772	32776	
1670	0	31400	37984	32780	32774	
1671	0	31360	37992	32768	32784	
1672	0	31264	37992	32776	32784	
1673	0	31184	37996	32768	32792	
1674	0	31066	38000	32768	32798	
1675	0	31020	38012	32764	32792	
1676	0	31012	38016	32769	32780	
1677	0	30976	38020	32756	32792	
1678	0	30936	38000	32768	32772	
1679	0	30912	38000	32776	32768	
1680	0	30904	37994	32780	32776	
1681	0	30928	37992	32780	32780	
1682	0	30976	37992	32772	32786	
1683	0	31000	37984	32768	32792	
1684	0	31012	37984	32770	32788	
1685	0	31016	37988	32776	32784	
1686	0	31008	38008	32760	32796	
1687	0	30964	38006	32768	32792	
1688	0	30956	38016	32752	32796	
1689	0	30962	38020	32754	32784	
1690	0	31016	38008	32764	32780	
1691	0	31024	38010	32768	32784	
1692	0	31016	37992	32772	32794	
1693	0	30994	37980	32776	32796	
1694	0	30992	37986	32764	32800	
1695	0	30984	37992	32768	32788	
1696	0	31024	37984	32760	32796	
1697	0	31080	37988	32772	32784	
1698	0	31152	37992	32760	32776	
1699	0	31200	37996	32764	32788	
1700	0	31236	37988	32762	32776	
1701	0	31282	37992	32752	32780	
1702	0	31332	38000	32760	32772	
1703	0	31378	38000	32756	32780	
1704	0	31440	38002	32774	32776	
1705	0	31468	37992	32768	32768	
1706	0	31464	37984	32770	32768	
1707	0	31404	38008	32762	32784	
1708	0	31344	38000	32776	32784	
1709	0	31288	37992	32770	32780	
1710	0	31240	38000	32776	32776	
1711	0	31208	38000	32784	32776	
1712	0	31188	38000	32770	32782	
1713	0	31188	38000	32780	32776	
1714	0	31204	38016	32778	32784	
1715	0	31202	38024	32772	32768	
1716	0	31200	38028	32784	32784	
1717	0	31220	38008	32776	32780	
1718	0	31252	37984	32762	32776	
1719	0	31272	37984	32764	32780	
1720	0	31256	37984	32776	32780	
1721	0	31216	37984	32776	32784	
1722	0	31232	37992	32776	32784	
1723	0	31268	37986	32770	32784	
1724	0	31260	37992	32780	32780	
1725	0	31234	38016	32784	32768	
1726	0	31268	38032	32780	32768	
1727	0	31376	38032	32792	32770	
1728	0	31556	38024	32772	32784	
1729	0	31664	37984	32780	32784	
1730	0	31748	37992	32773	32776	
1731	0	31860	38004	32764	32780	
1732	0	31892	38008	32768	32780	
1733	0	31832	38008	32772	32780	
1734	0	31736	38020	32776	32776	
1735	0	31688	38026	32768	32772	
1736	0	31672	38024	32764	32776	
1737	0	31668	38028	32760	32784	
1738	0	31754	38020	32760	32784	
1739	0	31856	38016	32752	32780	
1740	0	31868	38016	32756	32784	
1741	0	31920	38005	32760	32774	
1742	0	32000	38008	32764	32780	
1743	0	32052	38000	32752	32776	
1744	0	32104	37992	32748	32776	
1745	0	32112	37992	32758	32788	
1746	0	32056	37996	32748	32792	
1747	0	32032	37984	32752	32788	
1748	0	31996	37964	32744	32792	
1749	0	31954	37968	32749	32780	
1750	0	31969	37992	32736	32784	
1751	0	32114	37996	32766	32776	
1752	0	32116	37996	32772	32764	
1753	0	32040	37984	32772	32776	
1754	0	31953	37972	32768	32784	
1755	0	31968	37984	32760	32788	
1756	0	32053	37988	32764	32780	
1757	0	32088	37992	32764	32784	
1758	0	32090	37996	32760	32776	
1759	0	32056	38004	32762	32780	
1760	0	32056	37984	32764	32792	
1761	0	32064	37992	32764	32780	
1762	0	32096	38000	32764	32784	
1763	0	32198	38020	32768	32780	
1764	0	32264	38002	32768	32776	
1765	0	32290	38000	32772	32772	
1766	0	32336	38008	32768	32780	
1767	0	32396	38016	32757	32788	
1768	0	32448	38008	32760	32788	
1769	0	32504	38018	32784	32776	
1770	0	32544	38018	32772	32780	
1771	0	32512	38004	32788	32776	
1772	0	32490	38008	32780	32792	
1773	0	32468	38000	32772	32800	
1774	0	32444	37984	32776	32786	
1775	0	32420	38000	32768	32768	
1776	0	32448	37984	32768	32776	
1777	0	32466	38000	32776	32780	
1778	0	32524	38012	32764	32776	
1779	0	32580	38016	32780	32772	
1780	0	32612	38016	32770	32780	
1781	0	32652	38016	32760	32788	
1782	0	32712	38008	32760	32792	
1783	0	32762	38016	32768	32784	
1784	0	32772	38004	32764	32780	
1785	0	32800	37984	32760	32780	
1786	0	32800	37992	32762	32776	
1787	0	32744	37984	32768	32778	
1788	0	32744	37984	32776	32770	
1789	0	32746	37988	32768	32776	
1790	0	32728	37984	32776	32772	
1791	0	32704	38008	32776	32772	
1792	0	32696	38004	32772	32784	
1793	0	32688	38000	32780	32792	
1794	0	32680	37988	32780	32802	
1795	0	32676	37972	32772	32792	
1796	0	32744	37984	32776	32784	
1797	0	32852	37984	32768	32800	
1798	0	32940	37994	32764	32800	
1799	0	32976	37984	32772	32808	
1800	0	32928	38000	32768	32792	
1801	0	32936	38010	32768	32792	
1802	0	32944	37992	32770	32784	
1803	0	32948	37984	32776	32786	
1804	0	33008	38000	32768	32776	
1805	0	33036	38016	32776	32784	
1806	0	33008	38008	32776	32800	
1807	0	32980	38016	32776	32792	
1808	0	32976	38008	32784	32788	
1809	0	32980	37992	32768	32768	
1810	0	32964	38008	32772	32776	
1811	0	32904	37996	32768	32768	
1812	0	32864	37992	32776	32786	
1813	0	32904	37992	32772	32796	
1814	0	32944	38000	32768	32808	
1815	0	32948	38000	32764	32784	
1816	0	32980	37992	32762	32780	
1817	0	33014	37992	32764	32788	
1818	0	33028	38004	32768	32796	
1819	0	33104	37992	32756	32788	
1820	0	33152	38004	32764	32792	
1821	0	33232	38004	32760	32802	
1822	0	33296	38008	32760	32796	
1823	0	33370	38010	32756	32804	
1824	0	33416	37984	32762	32804	
1825	0	33468	37992	32744	32800	
1826	0	33536	38004	32752	32792	
1827	0	33594	38000	32768	32788	
1828	0	33624	38020	32760	32800	
1829	0	33616	38000	32752	32792	
1830	0	33608	38008	32764	32786	
1831	0	33588	38000	32770	32780	
1832	0	33556	38008	32760	32780	
1833	0	33460	38008	32768	32788	
1834	0	33370	38010	32760	32792	
1835	0	33312	38016	32760	32796	
1836	0	33284	38017	32760	32804	
1837	0	33292	37994	32768	32792	
1838	0	33292	38012	32756	32808	
1839	0	33304	38008	32768	32792	
1840	0	33352	38000	32762	32788	
1841	0	33384	38008	32752	32784	
1842	0	33412	38008	32768	32792	
1843	0	33444	38016	32772	32788	
1844	0	33448	38016	32780	32784	
1845	0	33460	37988	32768	32788	
1846	0	33528	37992	32776	32792	
1847	0	33668	38000	32776	32800	
1848	0	33744	38000	32769	32800	
1849	0	33780	37992	32768	32792	
1850	0	33848	38020	32760	32792	
1851	0	33940	38016	32769	32788	
1852	0	34026	38000	32776	32776	
1853	0	34152	37984	32784	32772	
1854	0	34220	37996	32776	32784	
1855	0	34184	37984	32788	32788	
1856	0	34130	37980	32788	32772	
1857	0	34092	37984	32784	32784	
1858	0	34016	38000	32786	32792	
1859	0	34032	38008	32784	32784	
1860	0	34112	38012	32780	32778	
1861	0	34240	38016	32768	32792	
1862	0	34348	37994	32776	32780	
1863	0	34354	38020	32764	32784	
1864	0	34304	38024	32768	32780	
1865	0	34260	38000	32768	32786	
1866	0	34256	38000	32764	32796	
1867	0	34296	38016	32768	32794	
1868	0	34356	38016	32772	32788	
1869	0	34440	38024	32772	32788	
1870	0	34488	37992	32776	32792	
1871	0	34528	38020	32772	32800	
1872	0	34616	38008	32768	32802	
1873	0	34732	38020	32752	32796	
1874	0	34752	38018	32756	32792	
1875	0	34754	38016	32765	32784	
1876	0	34760	38004	32776	32780	
1877	0	34784	38000	32762	32776	
1878	0	34792	38000	32764	32776	
1879	0	34789	38000	32776	32772	
1880	0	34776	38016	32768	32780	
1881	0	34834	38008	32769	32788	
1882	0	34912	37992	32760	32784	
1883	0	34928	38000	32764	32784	
1884	0	34964	37996	32764	32768	
1885	0	35028	38000	32768	32768	
1886	0	35056	37980	32764	32768	
1887	0	35092	37992	32768	32784	
1888	0	35120	37984	32772	32792	
1889	0	35178	38000	32756	32794	
1890	0	35300	38000	32768	32788	
1891	0	35396	38008	32772	32778	
1892	0	35400	38016	32772	32784	
1893	0	35396	38008	32768	32772	
1894	0	35408	38008	32776	32768	
1895	0	35404	37988	32768	32768	
1896	0	35400	37984	32772	32768	
1897	0	35436	37968	32772	32778	
1898	0	35472	38000	32760	32776	
1899	0	35500	37988	32768	32788	
1900	0	35520	37988	32764	32784	
1901	0	35524	37980	32756	32780	
1902	0	35488	37976	32762	32780	
1903	0	35532	37996	32776	32778	
1904	0	35616	38000	32772	32768	
1905	0	35658	38018	32776	32772	
1906	0	35656	38024	32768	32788	
1907	0	35676	38002	32760	32790	
1908	0	35712	37992	32772	32784	
1909	0	35648	37992	32776	32780	
1910	0	35624	37984	32780	32776	
1911	0	35592	37994	32780	32776	
1912	0	35568	38004	32792	32776	
1913	0	35572	38008	32776	32770	
1914	0	35610	38032	32772	32784	
1915	0	35660	38010	32770	32786	
1916	0	35672	38008	32776	32784	
1917	0	35652	38032	32776	32768	
1918	0	35588	38016	32776	32782	
1919	0	35528	38000	32780	32772	
1920	0	35448	37988	32776	32768	
1921	0	35492	37996	32756	32784	
1922	0	35594	38000	32752	32784	
1923	0	35688	38004	32760	32784	
1924	0	35796	38016	32772	32780	
1925	0	35860	38024	32768	32772	
1926	0	35828	38032	32780	32780	
1927	0	35712	38040	32772	32800	
1928	0	35604	38024	32776	32808	
1929	0	35540	38036	32776	32796	
1930	0	35628	38048	32768	32792	
1931	0	35712	38048	32772	32780	
1932	0	35744	38036	32768	32800	
1933	0	35716	38020	32768	32800	
1934	0	35648	38020	32762	32792	
1935	0	35584	37996	32772	32784	
1936	0	35520	37988	32768	32776	
1937	0	35384	38004	32760	32792	
1938	0	35280	38016	32778	32792	
1939	0	35216	38016	32788	32784	
1940	0	35160	38028	32772	32780	
1941	0	35144	38028	32768	32780	
1942	0	35072	38008	32776	32784	
1943	0	34944	38000	32776	32792	
1944	0	34776	37996	32764	32776	
1945	0	34640	38016	32764	32784	
1946	0	34516	38008	32770	32784	
1947	0	34424	38016	32760	32776	
1948	0	34328	38004	32776	32776	
1949	0	34252	37996	32764	32784	
1950	0	34200	37992	32756	32784	
1951	0	34154	37988	32768	32776	
1952	0	34084	37996	32764	32764	
1953	0	33968	37992	32762	32764	
1954	0	33788	37992	32772	32768	
1955	0	33588	37992	32776	32772	
1956	0	33444	37984	32764	32776	
1957	0	33322	37984	32760	32800	
1958	0	33196	37992	32752	32796	
1959	0	33082	38000	32760	32792	
1960	0	32900	37984	32760	32792	
1961	0	32720	38018	32764	32794	
1962	0	32624	38000	32756	32788	
1963	0	32568	38000	32756	32796	
1964	0	32576	38016	32764	32784	
1965	0	32552	38032	32784	32772	
1966	0	32488	38012	32776	32776	
1967	0	32392	38008	32760	32776	
1968	0	32220	38008	32764	32792	
1969	0	32064	38016	32760	32792	
1970	0	31958	38000	32768	32788	
1971	0	31858	37984	32768	32780	
1972	0	31696	38000	32756	32784	
1973	0	31560	37984	32756	32780	
1974	0	31460	37984	32776	32776	
1975	0	31360	37992	32776	32776	
1976	0	31320	37996	32772	32776	
1977	0	31240	38016	32764	32772	
1978	0	31200	38000	32760	32782	
1979	0	31136	37984	32774	32792	
1980	0	31052	38000	32752	32784	
1981	0	31004	37984	32768	32772	
1982	0	31020	37984	32768	32780	
1983	0	31040	38004	32768	32772	
1984	0	31008	38000	32772	32768	
1985	0	30880	38016	32764	32786	
1986	0	30748	38016	32768	32772	
1987	0	30672	38000	32768	32768	
1988	0	30600	38008	32764	32772	
1989	0	30498	38000	32756	32780	
1990	0	30424	37992	32760	32796	
1991	0	30394	38016	32768	32796	
1992	0	30408	38016	32772	32792	
1993	0	30386	38000	32768	32780	
1994	0	30318	38000	32772	32776	
1995	0	30280	37988	32784	32776	
1996	0	30248	38016	32768	32784	
1997	0	30260	38010	32764	32788	
1998	0	30256	38016	32764	32792	
1999	0	30208	38032	32760	32792	
2000	0	30096	38024	32756	32800	
2001	0	29998	38010	32756	32788	
2002	0	29886	37992	32768	32788	
2003	0	29844	38000	32780	32776	
2004	0	29848	38004	32784	32772	
2005	0	29776	38016	32772	32768	
2006	0	29760	38020	32776	32784	
2007	0	29868	38016	32764	32792	
2008	0	29984	38016	32760	32784	
2009	0	30032	38030	32780	32784	
2010	0	30068	38020	32776	32780	
2011	0	30044	38040	32776	32784	
2012	0	30056	38032	32776	32794	
2013	0	30098	38016	32776	32804	
2014	0	30114	37994	32788	32796	
2015	0	30100	37992	32776	32794	
2016	0	30050	38016	32762	32816	
2017	0	30016	38016	32770	32804	
2018	0	29954	37986	32788	32798	
2019	0	29944	37978	32780	32812	
2020	0	29940	37988	32776	32820	
2021	0	29920	38008	32772	32828	
2022	0	29888	38000	32752	32832	
2023	0	29928	37984	32764	32812	
2024	0	30024	37992	32776	32788	
2025	0	30120	37996	32762	32788	
2026	0	30148	37992	32760	32808	
2027	0	30116	38000	32768	32796	
2028	0	30128	38000	32772	32780	
2029	0	30156	38000	32768	32780	
2030	0	30200	38008	32780	32778	
2031	0	30202	37992	32780	32780	
2032	0	30164	38008	32772	32792	
2033	0	30080	37984	32776	32788	
2034	0	30040	37988	32778	32796	
2035	0	30066	37992	32772	32780	
2036	0	30128	37998	32756	32798	
2037	0	30132	37996	32768	32792	
2038	0	30120	37976	32768	32796	
2039	0	30112	37984	32768	32796	
2040	0	30112	37992	32776	32800	
2041	0	30160	37996	32764	32800	
2042	0	30216	37988	32756	32792	
2043	0	30246	38008	32752	32800	
2044	0	30292	38008	32762	32792	
2045	0	30348	38008	32778	32784	
2046	0	30416	37996	32776	32796	
2047	0	30476	37986	32772	32802	
2048	0	30466	37984	32768	32794	
2049	0	30424	37984	32768	32784	
2050	0	30380	38008	32776	32772	
2051	0	30360	38000	32760	32780	
2052	0	30344	38016	32770	32778	
2053	0	30320	38032	32780	32776	
2054	0	30300	38024	32768	32788	
2055	0	30272	38032	32776	32780	
2056	0	30260	38016	32760	32776	
2057	0	30300	38000	32768	32772	
2058	0	30344	38008	32756	32780	
2059	0	30356	37988	32744	32776	
2060	0	30325	37986	32760	32772	
2061	0	30324	37992	32768	32768	
2062	0	30368	38000	32768	32776	
2063	0	30448	37992	32764	32784	
2064	0	30516	37992	32772	32788	
2065	0	30580	37968	32768	32800	
2066	0	30684	38000	32760	32808	
2067	0	30760	37996	32764	32808	
2068	0	30760	38012	32768	32794	
2069	0	30720	38008	32768	32800	
2070	0	30736	38028	32776	32780	
2071	0	30724	38020	32772	32778	
2072	0	30656	38018	32784	32776	
2073	0	30602	38008	32768	32780	
2074	0	30580	37996	32760	32784	
2075	0	30556	38000	32768	32784	
2076	0	30532	38000	32768	32774	
2077	0	30560	37984	32784	32772	
2078	0	30644	37994	32780	32778	
2079	0	30684	38008	32780	32780	
2080	0	30672	37992	32784	32776	
2081	0	30720	38000	32776	32772	
2082	0	30816	38016	32794	32768	
2083	0	30860	37988	32800	32772	
2084	0	30885	37992	32792	32768	
2085	0	30938	38004	32788	32778	
2086	0	30976	38004	32776	32792	
2087	0	30980	38018	32769	32788	
2088	0	30976	38016	32772	32790	
2089	0	30980	38016	32772	32772	
2090	0	31000	37992	32776	32776	
2091	0	31004	38008	32780	32792	
2092	0	31020	37984	32776	32780	
2093	0	31056	38016	32772	32784	
2094	0	31096	38016	32776	32788	
2095	0	31132	38012	32768	32776	
2096	0	31120	38016	32776	32768	
2097	0	31060	38016	32776	32764	
2098	0	31010	38016	32768	32770	
2099	0	30984	38012	32770	32776	
2100	0	31008	38016	32772	32772	
2101	0	31072	38008	32776	32780	
2102	0	31180	37984	32776	32772	
2103	0	31248	38010	32768	32780	
2104	0	31298	38004	32768	32768	
2105	0	31312	38016	32768	32764	
2106	0	31360	38008	32768	32780	
2107	0	31440	38016	32776	32768	
2108	0	31474	38016	32776	32772	
2109	0	31528	38008	32780	32778	
2110	0	31552	37992	32784	32764	
2111	0	31556	37988	32768	32784	
2112	0	31492	38016	32776	32780	
2113	0	31420	38028	32784	32768	
2114	0	31372	38009	32768	32772	
2115	0	31320	38028	32768	32780	
2116	0	31296	38016	32776	32780	
2117	0	31244	38000	32780	32776	
2118	0	31218	37992	32760	32776	
2119	0	31168	37992	32768	32784	
2120	0	31152	37988	32764	32788	
2121	0	31208	38008	32760	32778	
2122	0	31290	38000	32752	32781	
2123	0	31348	38016	32760	32792	
2124	0	31416	38016	32760	32804	
2125	0	31496	38036	32776	32808	
2126	0	31520	38016	32772	32796	
2127	0	31536	38036	32776	32796	
2128	0	31540	38004	32772	32788	
2129	0	31524	38004	32769	32800	
2130	0	31498	38000	32772	32784	
2131	0	31536	38000	32776	32762	
2132	0	31504	38008	32776	32756	
2133	0	31512	37988	32776	32752	
2134	0	31592	37992	32776	32770	
2135	0	31608	38008	32776	32780	
2136	0	31600	38004	32772	32786	
2137	0	31628	37996	32760	32776	
2138	0	31624	38008	32760	32784	
2139	0	31624	38000	32760	32788	
2140	0	31600	38000	32772	32792	
2141	0	31592	37996	32772	32784	
2142	0	31564	38022	32772	32768	
2143	0	31514	38016	32772	32776	
2144	0	31540	38008	32776	32780	
2145	0	31576	37984	32770	32772	
2146	0	31600	37996	32768	32768	
2147	0	31616	38000	32772	32770	
2148	0	31684	37988	32776	32780	
2149	0	31832	37968	32768	32780	
2150	0	31936	37980	32768	32784	
2151	0	31972	37992	32752	32780	
2152	0	31965	38016	32768	32792	
2153	0	31940	38004	32772	32796	
2154	0	31953	37992	32784	32782	
2155	0	31952	37976	32788	32768	
2156	0	31928	37972	32776	32768	
2157	0	31880	38008	32768	32776	
2158	0	31876	38008	32772	32780	
2159	0	31876	38016	32768	32788	
2160	0	31900	38004	32752	32784	
2161	0	31924	38008	32752	32776	
2162	0	31960	38000	32760	32762	
2163	0	31980	38004	32770	32764	
2164	0	31994	37984	32760	32768	
2165	0	32016	38016	32760	32768	
2166	0	32048	38000	32768	32780	
2167	0	32078	37988	32768	32769	
2168	0	32076	38004	32768	32772	
2169	0	32074	38024	32768	32780	
2170	0	32072	38026	32772	32776	
2171	0	32094	38024	32764	32772	
2172	0	32116	38036	32772	32768	
2173	0	32136	38024	32768	32756	
2174	0	32108	38000	32776	32756	
2175	0	32020	38002	32752	32768	
2176	0	31936	38000	32752	32784	
2177	0	31904	37982	32764	32770	
2178	0	31904	38000	32772	32780	
2179	0	31944	37988	32752	32788	
2180	0	32000	37996	32754	32784	
2181	0	32012	37992	32752	32798	
2182	0	32024	37986	32754	32792	
2183	0	32060	38008	32764	32788	
2184	0	32076	38016	32756	32796	
2185	0	32064	38000	32764	32784	
2186	0	32080	37996	32768	32780	
2187	0	32112	38016	32776	32772	
2188	0	32112	38016	32762	32788	
2189	0	32108	38016	32768	32788	
2190	0	32096	38016	32780	32792	
2191	0	32112	38016	32780	32802	
2192	0	32152	38016	32768	32798	
2193	0	32120	38024	32784	32784	
2194	0	32112	38016	32784	32788	
2195	0	32076	38004	32780	32778	
2196	0	32104	38008	32784	32776	
2197	0	32096	37994	32780	32786	
2198	0	32098	37976	32792	32786	
2199	0	32088	37984	32784	32776	
2200	0	32032	37984	32776	32776	
2201	0	32008	37976	32768	32776	
2202	0	32052	38000	32776	32776	
2203	0	32132	37984	32776	32768	
2204	0	32144	37992	32780	32772	
2205	0	32184	38016	32776	32780	
2206	0	32248	38024	32768	32802	
2207	0	32304	38000	32776	32800	
2208	0	32314	38010	32768	32796	
2209	0	32224	38032	32776	32792	
2210	0	32128	38008	32772	32784	
2211	0	32028	38004	32770	32788	
2212	0	31992	38024	32771	32784	
2213	0	31968	38024	32784	32785	
2214	0	32012	38016	32794	32784	
2215	0	32136	38016	32784	32780	
2216	0	32272	38020	32774	32784	
2217	0	32348	38016	32784	32776	
2218	0	32396	38008	32784	32768	
2219	0	32360	38032	32778	32776	
2220	0	32340	38036	32772	32768	
2221	0	32402	38016	32788	32768	
2222	0	32464	38000	32776	32776	
2223	0	32476	37988	32772	32784	
2224	0	32468	37992	32770	32780	
2225	0	32396	37988	32772	32784	
2226	0	32322	38016	32768	32784	
2227	0	32246	38008	32780	32776	
2228	0	32248	38016	32774	32784	
2229	0	32304	38008	32776	32780	
2230	0	32368	38016	32776	32776	
2231	0	32386	38016	32760	32784	
2232	0	32368	38008	32768	32776	
2233	0	32264	38032	32776	32768	
2234	0	32232	38020	32776	32776	
2235	0	32224	38008	32768	32776	
2236	0	32272	38004	32768	32776	
2237	0	32312	37992	32760	32776	
2238	0	32392	37984	32748	32780	
2239	0	32408	37984	32756	32788	
2240	0	32376	37988	32756	32784	
2241	0	32384	37996	32760	32784	
2242	0	32368	37976	32762	32776	
2243	0	32364	37988	32776	32768	
2244	0	32388	37984	32768	32780	
2245	0	32384	37986	32764	32784	
2246	0	32348	38000	32772	32776	
2247	0	32276	38000	32768	32768	
2248	0	32256	37996	32760	32780	
2249	0	32304	38004	32772	32776	
2250	0	32336	38004	32752	32784	
2251	0	32315	38016	32756	32784	
2252	0	32296	38004	32756	32788	
2253	0	32322	38008	32756	32788	
2254	0	32312	38010	32768	32790	
2255	0	32272	38032	32776	32800	
2256	0	32256	38016	32768	32800	
2257	0	32240	38016	32772	32788	
2258	0	32258	38028	32760	32780	
2259	0	32328	38016	32768	32788	
2260	0	32356	38016	32764	32778	
2261	0	32352	38000	32768	32780	
2262	0	32388	38008	32762	32792	
2263	0	32416	38024	32768	32790	
2264	0	32428	38016	32776	32784	
2265	0	32432	38008	32768	32780	
2266	0	32416	38008	32772	32780	
2267	0	32416	38008	32784	32776	
2268	0	32424	38000	32776	32772	
2269	0	32424	38016	32784	32768	
2270	0	32452	38000	32784	32768	
2271	0	32452	38002	32776	32768	
2272	0	32432	38008	32768	32768	
2273	0	32464	38016	32776	32778	
2274	0	32460	38000	32774	32774	
2275	0	32480	37984	32776	32784	
2276	0	32442	37984	32772	32778	
2277	0	32316	37978	32768	32772	
2278	0	32238	37984	32784	32772	
2279	0	32216	37984	32800	32760	
2280	0	32236	37976	32776	32772	
2281	0	32296	37980	32776	32776	
2282	0	32412	37988	32784	32774	
2283	0	32480	37992	32776	32778	
2284	0	32502	37996	32768	32773	
2285	0	32496	37984	32760	32784	
2286	0	32510	37976	32784	32768	
2287	0	32560	37988	32784	32780	
2288	0	32560	38000	32760	32784	
2289	0	32568	38008	32776	32792	
2290	0	32548	38016	32778	32788	
2291	0	32493	37994	32780	32780	
2292	0	32412	38008	32768	32780	
2293	0	32328	38000	32768	32772	
2294	0	32296	38016	32756	32784	
2295	0	32260	38020	32772	32776	
2296	0	32292	38004	32764	32784	
2297	0	32384	37984	32764	32784	
2298	0	32408	38004	32780	32762	
2299	0	32348	38008	32776	32764	
2300	0	32292	38008	32784	32772	
2301	0	32304	37996	32776	32776	
2302	0	32354	38016	32776	32760	
2303	0	32502	38028	32776	32784	
2304	0	32640	38008	32776	32780	
2305	0	32688	38024	32776	32776	
2306	0	32644	38032	32780	32772	
2307	0	32584	38024	32780	32772	
2308	0	32552	38016	32776	32784	
2309	0	32480	38020	32772	32776	
2310	0	32430	38000	32764	32784	
2311	0	32388	38008	32780	32768	
2312	0	32392	37992	32768	32776	
2313	0	32416	38016	32760	32788	
2314	0	32404	38020	32778	32776	
2315	0	32376	38024	32780	32784	
2316	0	32392	38028	32776	32788	
2317	0	32433	38002	32768	32788	
2318	0	32480	37992	32768	32784	
2319	0	32508	38000	32764	32784	
2320	0	32528	38000	32768	32794	
2321	0	32496	37996	32760	32792	
2322	0	32448	38016	32772	32776	
2323	0	32412	38000	32768	32776	
2324	0	32416	37992	32764	32790	
2325	0	32408	38004	32760	32792	
2326	0	32412	38008	32760	32792	
2327	0	32448	38000	32768	32788	
2328	0	32424	38016	32780	32784	
2329	0	32432	38016	32788	32768	
2330	0	32464	38008	32792	32768	
2331	0	32476	37980	32788	32770	
2332	0	32528	38016	32772	32784	
2333	0	32584	38012	32776	32780	
2334	0	32566	37984	32792	32776	
2335	0	32520	37986	32776	32772	
2336	0	32496	38000	32768	32788	
2337	0	32508	37988	32776	32772	
2338	0	32536	37984	32784	32784	
2339	0	32552	37984	32784	32784	
2340	0	32588	38008	32780	32772	
2341	0	32608	37992	32784	32776	
2342	0	32612	37984	32760	32788	
2343	0	32640	37984	32768	32792	
2344	0	32664	38000	32772	32776	
2345	0	32708	38000	32772	32820	
2346	0	32712	38020	32784	32818	
2347	0	32680	38010	32784	32828	
2348	0	32644	38020	32776	32828	
2349	0	32648	38036	32780	32814	
2350	0	32626	38028	32776	32803	
2351	0	32600	38032	32776	32792	
2352	0	32584	38032	32780	32772	
2353	0	32572	38016	32772	32776	
2354	0	32540	37996	32770	32784	
2355	0	32464	38000	32768	32772	
2356	0	32388	37992	32768	32760	
2357	0	32368	38008	32770	32744	
2358	0	32336	37960	32784	32752	
2359	0	32320	37976	32764	32760	
2360	0	32284	37986	32756	32784	
2361	0	32320	38008	32780	32776	
2362	0	32394	37992	32788	32772	
2363	0	32456	37978	32792	32776	
2364	0	32504	38000	32776	32788	
2365	0	32620	38004	32768	32784	
2366	0	32682	37980	32776	32772	
2367	0	32656	37984	32776	32788	
2368	0	32594	37992	32772	32776	
2369	0	32496	37992	32772	32784	
2370	0	32424	37984	32772	32768	
2371	0	32384	37968	32778	32768	
2372	0	32304	37984	32776	32784	
2373	0	32264	37984	32776	32768	
2374	0	32284	37984	32770	32784	
2375	0	32384	37992	32772	32780	
2376	0	32472	37996	32780	32792	
2377	0	32524	38004	32780	32792	
2378	0	32512	38006	32776	32796	
2379	0	32496	37972	32778	32792	
2380	0	32522	37992	32780	32780	
2381	0	32594	38000	32772	32784	
2382	0	32626	38028	32780	32792	
2383	0	32626	38000	32776	32792	
2384	0	32640	37992	32784	32788	
2385	0	32680	37996	32772	32804	
2386	0	32736	38016	32774	32792	
2387	0	32780	38008	32769	32800	
2388	0	32812	38012	32764	32800	
2389	0	32852	38020	32768	32776	
2390	0	32888	38032	32768	32792	
2391	0	32896	38020	32768	32788	
2392	0	32816	38004	32760	32786	
2393	0	32636	37984	32764	32772	
2394	0	32488	38008	32768	32776	
2395	0	32452	37992	32770	32764	
2396	0	32474	38004	32778	32756	
2397	0	32480	38020	32774	32768	
2398	0	32472	38016	32778	32776	
2399	0	32440	37996	32776	32772	
2400	0	32436	38000	32756	32780	
2401	0	32452	38008	32768	32788	
2402	0	32468	38008	32760	32792	
2403	0	32480	38018	32772	32784	
2404	0	32492	38020	32770	32780	
2405	0	32544	38016	32764	32784	
2406	0	32656	38016	32784	32784	
2407	0	32716	38016	32768	32788	
2408	0	32736	38028	32752	32782	
2409	0	32716	38018	32768	32780	
2410	0	32648	37988	32770	32785	
2411	0	32608	37992	32768	32790	
2412	0	32680	38008	32752	32788	
2413	0	32722	38020	32756	32784	
2414	0	32692	38016	32758	32794	
2415	0	32652	38028	32762	32792	
2416	0	32708	38016	32760	32796	
2417	0	32808	38024	32760	32800	
2418	0	32866	38004	32760	32800	
2419	0	32904	38008	32768	32788	
2420	0	32944	38016	32772	32784	
2421	0	32944	38020	32771	32788	
2422	0	32956	38000	32768	32792	
2423	0	32952	37984	32776	32776	
2424	0	32964	38000	32770	32776	
2425	0	33008	37996	32762	32780	
2426	0	33036	37984	32764	32776	
2427	0	33038	38000	32768	32784	
2428	0	33016	38016	32764	32784	
2429	0	33000	38020	32780	32772	
2430	0	32936	38000	32784	32776	
2431	0	32800	38016	32784	32776	
2432	0	32652	38016	32784	32784	
2433	0	32536	37992	32780	32792	
2434	0	32490	37992	32784	32792	
2435	0	32492	37992	32780	32780	
2436	0	32488	38016	32784	32780	
2437	0	32466	38008	32776	32788	
2438	0	32392	37988	32770	32780	
2439	0	32344	38008	32780	32776	
2440	0	32368	38008	32784	32784	
2441	0	32408	38004	32792	32780	
2442	0	32420	37984	32788	32776	
2443	0	32501	37992	32792	32776	
2444	0	32576	37988	32802	32776	
2445	0	32632	37996	32792	32788	
2446	0	32716	38000	32796	32784	
2447	0	32776	38000	32784	32780	
2448	0	32810	38008	32780	32788	
2449	0	32836	38000	32776	32796	
2450	0	32802	38004	32772	32776	
2451	0	32776	38016	32777	32784	
2452	0	32720	37996	32784	32784	
2453	0	32656	37992	32784	32792	
2454	0	32630	38010	32776	32796	
2455	0	32604	38018	32780	32796	
2456	0	32556	38016	32780	32792	
2457	0	32552	38008	32776	32800	
2458	0	32568	38008	32768	32800	
2459	0	32648	38000	32776	32808	
2460	0	32696	38000	32788	32806	
2461	0	32732	38000	32800	32808	
2462	0	32808	38016	32788	32796	
2463	0	32856	38018	32778	32800	
2464	0	32872	38016	32776	32802	
2465	0	32866	38024	32764	32808	
2466	0	32876	38032	32768	32800	
2467	0	32860	38004	32768	32792	
2468	0	32820	38004	32762	32800	
2469	0	32812	38000	32780	32796	
2470	0	32808	38000	32769	32782	
2471	0	32826	38000	32768	32796	
2472	0	32832	38008	32772	32788	
2473	0	32792	38016	32768	32786	
2474	0	32716	38028	32772	32785	
2475	0	32684	38036	32762	32794	
2476	0	32704	38032	32756	32792	
2477	0	32704	38016	32756	32788	
2478	0	32748	38008	32764	32782	
2479	0	32764	37980	32776	32788	
2480	0	32720	37988	32776	32796	
2481	0	32704	37968	32784	32800	
2482	0	32712	37972	32764	32784	
2483	0	32754	37984	32772	32784	
2484	0	32896	37988	32776	32776	
2485	0	33000	37992	32780	32776	
2486	0	33016	38016	32780	32784	
2487	0	32986	38000	32768	32792	
2488	0	33016	38000	32776	32792	
2489	0	33016	37996	32776	32784	
2490	0	32984	37992	32764	32796	
2491	0	32940	37984	32784	32788	
2492	0	32869	38004	32772	32800	
2493	0	32860	38000	32772	32788	
2494	0	32850	37992	32776	32796	
2495	0	32828	38000	32760	32804	
2496	0	32858	38000	32764	32810	
2497	0	32912	38008	32768	32808	
2498	0	32906	37984	32772	32800	
2499	0	32868	38004	32768	32800	
2500	0	32896	38000	32776	32804	
2501	0	32954	37976	32768	32800	
2502	0	32968	38000	32784	32792	
2503	0	32928	38004	32780	32788	
2504	0	32880	38008	32776	32792	
2505	0	32840	38008	32776	32796	
2506	0	32792	38016	32784	32792	
2507	0	32784	38016	32762	32796	
2508	0	32708	38008	32757	32796	
2509	0	32736	38004	32756	32808	
2510	0	32762	38000	32760	32804	
2511	0	32792	37996	32760	32796	
2512	0	32778	38016	32752	32800	
2513	0	32772	38024	32760	32796	
2514	0	32748	38000	32768	32792	
2515	0	32720	38008	32776	32800	
2516	0	32768	38032	32780	32784	
2517	0	32816	38028	32768	32792	
2518	0	32800	38020	32776	32788	
2519	0	32712	37996	32760	32794	
2520	0	32642	38004	32764	32800	
2521	0	32652	38020	32769	32800	
2522	0	32660	38016	32776	32796	
2523	0	32704	38016	32768	32788	
2524	0	32704	38024	32776	32788	
2525	0	32652	38000	32776	32800	
2526	0	32686	37988	32772	32788	
2527	0	32730	38016	32792	32764	
2528	0	32780	38008	32792	32768	
2529	0	32757	38016	32784	32776	
2530	0	32808	37996	32770	32772	
2531	0	32856	38000	32776	32784	
2532	0	32872	38008	32768	32780	
2533	0	32918	38002	32768	32788	
2534	0	32896	37992	32760	32784	
2535	0	32900	38004	32762	32776	
2536	0	32924	38016	32760	32776	
2537	0	32920	38040	32756	32788	
2538	0	32912	38024	32768	32780	
2539	0	32948	38020	32776	32784	
2540	0	32960	38020	32776	32776	
2541	0	32944	38020	32784	32780	
2542	0	32976	38004	32778	32772	
2543	0	33048	38024	32776	32784	
2544	0	33112	38016	32768	32780	
2545	0	33092	38016	32760	32784	
2546	0	33036	38016	32764	32780	
2547	0	33040	38004	32762	32780	
2548	0	33068	38008	32760	32784	
2549	0	33082	38008	32764	32784	
2550	0	33092	38004	32752	32788	
2551	0	33036	38016	32760	32792	
2552	0	32920	38024	32764	32788	
2553	0	32780	38000	32764	32796	
2554	0	32712	38016	32768	32786	
2555	0	32716	38000	32756	32792	
2556	0	32784	38008	32764	32784	
2557	0	32866	37988	32762	32788	
2558	0	32872	37984	32768	32796	
2559	0	32888	38000	32768	32788	
2560	0	32896	38010	32776	32784	
2561	0	32938	37992	32772	32780	
2562	0	33004	37992	32772	32784	
2563	0	33060	37992	32772	32784	
2564	0	33080	37994	32760	32792	
2565	0	33048	38000	32770	32796	
2566	0	33038	38000	32776	32788	
2567	0	33048	38012	32758	32796	
2568	0	33072	38024	32764	32816	
2569	0	33088	38020	32756	32804	
2570	0	33053	37996	32768	32800	
2571	0	33012	37988	32776	32784	
2572	0	33005	37980	32768	32794	
2573	0	32992	38000	32768	32800	
2574	0	32936	38016	32766	32808	
2575	0	32856	37996	32768	32792	
2576	0	32796	38032	32762	32800	
2577	0	32772	38018	32776	32808	
2578	0	32796	38008	32768	32800	
2579	0	32770	37984	32754	32804	
2580	0	32720	37994	32760	32800	
2581	0	32672	37992	32764	32800	
2582	0	32640	37984	32752	32816	
2583	0	32708	37992	32768	32808	
2584	0	32816	37984	32764	32804	
2585	0	32928	38000	32768	32810	
2586	0	33024	38000	32760	32816	
2587	0	33048	38008	32768	32802	
2588	0	33066	38000	32764	32808	
2589	0	33060	37992	32756	32804	
2590	0	33080	38000	32760	32800	
2591	0	33052	38004	32762	32792	
2592	0	33072	38000	32768	32800	
2593	0	33080	38008	32760	32804	
2594	0	33106	38004	32752	32812	
2595	0	33124	38000	32772	32800	
2596	0	33122	38008	32760	32816	
2597	0	33080	38010	32768	32808	
2598	0	33056	38016	32772	32796	
2599	0	33036	38010	32772	32788	
2600	0	33016	38016	32776	32788	
2601	0	33008	38008	32778	32788	
2602	0	32976	37996	32784	32792	
2603	0	32976	38000	32788	32792	
2604	0	32932	38004	32776	32788	
2605	0	32900	38016	32784	32788	
2606	0	32872	38018	32784	32784	
2607	0	32832	38034	32794	32784	
2608	0	32852	38028	32784	32784	
2609	0	32936	38008	32770	32788	
2610	0	33010	38016	32764	32800	
2611	0	33064	38024	32768	32792	
2612	0	33088	38016	32764	32802	
2613	0	33032	38028	32768	32788	
2614	0	32968	38032	32768	32792	
2615	0	32889	38002	32760	32794	
2616	0	32860	38016	32760	32800	
2617	0	32840	38004	32764	32800	
2618	0	32780	38000	32768	32794	
2619	0	32768	38000	32764	32784	
2620	0	32788	38004	32764	32784	
2621	0	32812	37988	32760	32792	
2622	0	32812	37994	32776	32788	
2623	0	32818	37996	32772	32780	
2624	0	32812	38028	32772	32800	
2625	0	32816	38016	32772	32788	
2626	0	32840	37992	32780	32784	
2627	0	32896	37996	32778	32784	
2628	0	32920	38000	32768	32788	
2629	0	32932	38000	32768	32792	
2630	0	32992	37984	32780	32788	
2631	0	33024	37992	32788	32800	
2632	0	33004	37984	32768	32812	
2633	0	33040	38000	32756	32816	
2634	0	33084	37992	32760	32800	
2635	0	33012	37978	32772	32800	
2636	0	32928	37968	32768	32792	
2637	0	32912	37960	32760	32804	
2638	0	32922	38000	32772	32792	
2639	0	32984	37996	32784	32796	
2640	0	33024	37992	32776	32802	
2641	0	33112	37992	32768	32792	
2642	0	33180	38016	32776	32788	
2643	0	33284	38016	32780	32782	
2644	0	33364	37996	32784	32784	
2645	0	33344	38004	32788	32786	
2646	0	33324	38016	32788	32784	
2647	0	33280	38016	32780	32788	
2648	0	33256	38016	32784	32776	
2649	0	33248	38016	32784	32784	
2650	0	33252	38016	32781	32780	
2651	0	33288	38000	32772	32792	
2652	0	33254	38016	32777	32784	
2653	0	33184	38016	32780	32792	
2654	0	33128	38016	32776	32804	
2655	0	33000	38004	32768	32792	
2656	0	32901	38008	32772	32790	
2657	0	32928	38016	32776	32788	
2658	0	32984	38004	32768	32782	
2659	0	33024	38024	32762	32780	
2660	0	33016	38024	32760	32788	
2661	0	32960	38016	32760	32782	
2662	0	32992	38024	32776	32784	
2663	0	33060	38016	32788	32780	
2664	0	33140	38004	32784	32778	
2665	0	33208	38004	32776	32770	
2666	0	33216	38004	32776	32776	
2667	0	33160	38010	32780	32776	
2668	0	33112	38016	32776	32780	
2669	0	33108	38016	32764	32780	
2670	0	33072	38036	32764	32776	
2671	0	33000	38024	32772	32794	
2672	0	32916	38008	32772	32800	
2673	0	32872	38016	32772	32792	
2674	0	32852	38016	32768	32800	
2675	0	32880	38016	32780	32800	
2676	0	32956	38004	32776	32804	
2677	0	32984	38008	32776	32816	
2678	0	32986	38012	32768	32816	
2679	0	33008	38016	32780	32810	
2680	0	33038	38004	32776	32800	
2681	0	33088	38020	32780	32800	
2682	0	33146	38016	32780	32804	
2683	0	33180	37988	32780	32800	
2684	0	33240	37988	32768	32792	
2685	0	33284	38000	32762	32804	
2686	0	33284	38000	32760	32808	
2687	0	33250	37984	32772	32808	
2688	0	33232	37972	32770	32808	
2689	0	33246	37984	32774	32808	
2690	0	33200	37992	32762	32788	
2691	0	33112	38000	32760	32788	
2692	0	33080	37992	32764	32800	
2693	0	33082	37994	32768	32796	
2694	0	33106	37984	32772	32796	
2695	0	33160	37972	32772	32784	
2696	0	33196	37984	32776	32798	
2697	0	33232	37984	32764	32804	
2698	0	33300	37992	32772	32784	
2699	0	33368	37992	32768	32792	
2700	0	33372	37996	32768	32784	
2701	0	33352	37992	32772	32784	
2702	0	33352	37984	32785	32772	
2703	0	33400	38008	32784	32780	
2704	0	33456	38008	32788	32784	
2705	0	33492	38016	32768	32784	
2706	0	33528	38010	32768	32796	
2707	0	33536	38004	32784	32800	
2708	0	33576	38000	32780	32800	
2709	0	33732	38008	32784	32796	
2710	0	33872	38020	32768	32804	
2711	0	33900	38016	32772	32794	
2712	0	33884	38016	32789	32796	
2713	0	33872	38000	32780	32800	
2714	0	33984	38002	32784	32800	
2715	0	34112	38008	32780	32792	
2716	0	34292	38028	32768	32800	
2717	0	34368	38028	32780	32792	
2718	0	34384	38024	32784	32794	
2719	0	34392	38008	32784	32788	
2720	0	34408	38016	32776	32788	
2721	0	34412	38024	32784	32792	
2722	0	34444	38000	32780	32781	
2723	0	34508	38008	32776	32790	
2724	0	34524	38000	32780	32788	
2725	0	34495	38008	32772	32788	
2726	0	34446	38000	32784	32784	
2727	0	34380	38004	32784	32784	
2728	0	34340	38016	32792	32774	
2729	0	34308	38000	32776	32768	
2730	0	34336	37992	32780	32772	
2731	0	34344	37988	32784	32776	
2732	0	34352	38000	32792	32778	
2733	0	34352	38000	32796	32792	
2734	0	34284	38024	32784	32784	
2735	0	34208	38000	32784	32792	
2736	0	34120	37996	32768	32808	
2737	0	34024	37980	32760	32800	
2738	0	33940	37984	32760	32804	
2739	0	33900	37980	32768	32794	
2740	0	33920	38008	32762	32804	
2741	0	33900	38016	32764	32792	
2742	0	33880	38004	32776	32788	
2743	0	33940	38028	32764	32788	
2744	0	33988	38018	32762	32780	
2745	0	34020	38020	32768	32776	
2746	0	34056	38032	32776	32784	
2747	0	34044	38018	32784	32780	
2748	0	34000	38016	32776	32784	
2749	0	33956	38008	32772	32784	
2750	0	34004	38024	32780	32784	
2751	0	34048	38024	32788	32788	
2752	0	34024	38000	32768	32788	
2753	0	34016	38004	32780	32784	
2754	0	33988	38008	32776	32788	
2755	0	33936	37992	32772	32780	
2756	0	33944	37992	32776	32796	
2757	0	33928	38000	32776	32792	
2758	0	33936	38000	32768	32784	
2759	0	33960	37996	32776	32784	
2760	0	33936	38024	32768	32788	
2761	0	33872	38048	32768	32792	
2762	0	33776	38028	32776	32788	
2763	0	33696	38048	32776	32780	
2764	0	33664	38040	32768	32778	
2765	0	33664	38004	32772	32780	
2766	0	33621	37984	32776	32792	
2767	0	33560	37996	32772	32792	
2768	0	33448	37980	32784	32788	
2769	0	33268	37988	32776	32784	
2770	0	33141	38008	32780	32788	
2771	0	33032	37996	32776	32800	
2772	0	32916	38024	32784	32776	
2773	0	32816	37996	32776	32776	
2774	0	32740	38008	32768	32778	
2775	0	32664	38008	32768	32792	
2776	0	32608	37992	32776	32800	
2777	0	32592	37984	32784	32788	
2778	0	32572	37984	32776	32784	
2779	0	32564	38000	32784	32784	
2780	0	32608	37984	32786	32800	
2781	0	32692	37976	32788	32792	
2782	0	32780	37976	32786	32780	
2783	0	32808	37984	32780	32776	
2784	0	32796	37988	32772	32784	
2785	0	32784	37984	32772	32788	
2786	0	32760	37992	32772	32784	
2787	0	32744	37984	32776	32788	
2788	0	32720	37988	32784	32788	
2789	0	32724	37988	32780	32786	
2790	0	32768	37984	32772	32780	
2791	0	32792	37992	32780	32776	
2792	0	32784	38000	32780	32784	
2793	0	32756	38000	32768	32792	
2794	0	32714	38008	32756	32788	
2795	0	32724	38008	32762	32800	
2796	0	32764	38004	32772	32788	
2797	0	32780	38028	32754	32784	
2798	0	32708	38008	32760	32792	
2799	0	32614	38000	32752	32794	
2800	0	32576	38016	32752	32792	
2801	0	32504	38008	32762	32792	
2802	0	32484	37994	32768	32796	
2803	0	32488	37992	32768	32788	
2804	0	32496	37992	32768	32800	
2805	0	32516	38000	32760	32800	
2806	0	32536	38016	32776	32792	
2807	0	32504	38028	32784	32788	
2808	0	32482	38016	32778	32792	
2809	0	32496	38000	32784	32784	
2810	0	32568	37992	32760	32796	
2811	0	32640	38008	32760	32796	
2812	0	32660	38004	32752	32808	
2813	0	32648	37996	32772	32804	
2814	0	32578	38000	32762	32804	
2815	0	32516	38000	32768	32800	
2816	0	32500	38008	32770	32792	
2817	0	32476	38000	32772	32784	
2818	0	32444	38004	32768	32788	
2819	0	32428	38008	32768	32792	
2820	0	32436	37992	32772	32792	
2821	0	32450	37992	32784	32796	
2822	0	32464	37988	32784	32792	
2823	0	32464	37992	32780	32776	
2824	0	32472	37996	32770	32784	
2825	0	32432	38008	32772	32780	
2826	0	32352	38000	32776	32768	
2827	0	32304	38000	32768	32768	
2828	0	32236	38000	32784	32768	
2829	0	32184	38000	32782	32776	
2830	0	32016	37992	32776	32776	
2831	0	31800	37976	32768	32780	
2832	0	31544	37992	32768	32772	
2833	0	31292	37992	32778	32784	
2834	0	31054	37988	32776	32788	
2835	0	30732	37996	32776	32800	
2836	0	30424	37996	32768	32802	
2837	0	30160	38000	32780	32816	
2838	0	29988	37992	32780	32800	
2839	0	29880	37968	32778	32804	
2840	0	29834	37968	32792	32800	
2841	0	29844	37984	32784	32784	
2842	0	29924	37976	32784	32780	
2843	0	30032	37992	32780	32784	
2844	0	30152	38008	32778	32778	
2845	0	30298	37996	32770	32788	
2846	0	30570	38018	32780	32784	
2847	0	30864	38008	32780	32776	
2848	0	31176	38004	32768	32776	
2849	0	31472	37996	32768	32776	
2850	0	31700	38000	32768	32772	
2851	0	31984	38016	32768	32784	
2852	0	32320	38004	32760	32784	
2853	0	32706	38000	32764	32784	
2854	0	33128	37994	32772	32784	
2855	0	33576	37992	32768	32788	
2856	0	34132	37996	32772	32788	
2857	0	34752	38020	32762	32784	
2858	0	35464	37988	32778	32794	
2859	0	36176	37994	32776	32792	
2860	0	36870	37996	32772	32792	
2861	0	37624	37988	32768	32792	
2862	0	38466	37992	32780	32776	
2863	0	39360	37984	32768	32784	
2864	0	40314	37984	32756	32768	
2865	0	41364	37992	32770	32768	
2866	0	42412	37984	32784	32768	
2867	0	43460	38004	32772	32772	
2868	0	44544	38000	32784	32770	
2869	0	45536	37988	32782	32768	
2870	0	46296	38020	32768	32768	
2871	0	46890	38016	32776	32772	
2872	0	47488	38016	32784	32776	
2873	0	48116	38032	32788	32768	
2874	0	48684	38028	32772	32780	
2875	0	49008	38008	32776	32784	
2876	0	49000	38016	32772	32784	
2877	0	48692	38012	32770	32780	
2878	0	48096	38032	32772	32780	
2879	0	47372	37992	32776	32782	
2880	0	46624	38016	32784	32788	
2881	0	45840	38008	32768	32780	
2882	0	45052	38020	32780	32778	
2883	0	44228	38008	32770	32776	
2884	0	43392	38024	32764	32780	
2885	0	42508	38024	32748	32784	
2886	0	41498	38016	32752	32784	
2887	0	40448	38016	32752	32788	
2888	0	39292	38032	32752	32794	
2889	0	38072	38016	32752	32780	
2890	0	36842	38004	32756	32785	
2891	0	35632	38004	32760	32792	
2892	0	34548	38016	32760	32792	
2893	0	33528	38016	32756	32792	
2894	0	32680	38008	32760	32786	
2895	0	31992	38018	32778	32780	
2896	0	31352	38008	32784	32780	
2897	0	30800	37984	32780	32792	
2898	0	30312	37964	32784	32792	
2899	0	29940	37976	32780	32786	
2900	0	29732	37980	32788	32792	
2901	0	29664	37992	32776	32792	
2902	0	29656	37976	32780	32794	
2903	0	29688	37996	32778	32796	
2904	0	29774	37992	32776	32800	
2905	0	29896	38000	32772	32784	
2906	0	30048	37988	32776	32788	
2907	0	30188	37976	32768	32792	
2908	0	30352	37976	32788	32776	
2909	0	30604	37984	32780	32796	
2910	0	30880	37988	32784	32808	
2911	0	31050	37992	32784	32800	
2912	0	31170	38000	32776	32792	
2913	0	31316	38018	32764	32808	
2914	0	31392	38020	32764	32794	
2915	0	31456	37988	32768	32800	
2916	0	31524	38016	32776	32800	
2917	0	31592	38028	32788	32784	
2918	0	31652	38022	32784	32796	
2919	0	31612	38016	32792	32780	
2920	0	31500	38016	32788	32780	
2921	0	31416	38016	32776	32788	
2922	0	31340	38016	32776	32784	
2923	0	31296	38008	32784	32792	
2924	0	31296	38004	32784	32784	
2925	0	31272	38008	32772	32788	
2926	0	31224	38016	32776	32784	
2927	0	31176	38004	32776	32780	
2928	0	31136	38024	32784	32785	
2929	0	31132	38016	32784	32776	
2930	0	31124	38032	32784	32792	
2931	0	31128	38008	32782	32796	
2932	0	31052	37984	32780	32792	
2933	0	30936	37992	32776	32792	
2934	0	30880	37984	32780	32792	
2935	0	30892	37984	32784	32788	
2936	0	30864	37988	32780	32792	
2937	0	30864	38000	32780	32792	
2938	0	30873	38010	32776	32792	
2939	0	30880	38016	32772	32784	
2940	0	30856	38024	32784	32784	
2941	0	30816	38000	32788	32776	
2942	0	30833	38012	32792	32772	
2943	0	30960	38008	32792	32780	
2944	0	31084	38004	32788	32776	
2945	0	31144	38008	32784	32784	
2946	0	31200	38000	32796	32784	
2947	0	31192	37996	32780	32788	
2948	0	31156	38016	32760	32776	
2949	0	31160	38028	32764	32796	
2950	0	31084	38024	32760	32788	
2951	0	31060	38008	32776	32788	
2952	0	31080	37992	32768	32794	
2953	0	31168	37984	32764	32800	
2954	0	31264	38012	32772	32800	
2955	0	31304	38012	32772	32788	
2956	0	31300	38000	32788	32776	
2957	0	31276	37992	32776	32788	
2958	0	31296	38000	32768	32800	
2959	0	31288	37996	32780	32800	
2960	0	31288	38000	32780	32788	
2961	0	31360	38000	32780	32780	
2962	0	31414	38008	32780	32788	
2963	0	31434	38016	32760	32776	
2964	0	31440	38018	32780	32768	
2965	0	31464	38016	32768	32780	
2966	0	31468	38028	32772	32772	
2967	0	31458	38032	32776	32780	
2968	0	31488	38016	32770	32792	
2969	0	31548	37998	32776	32780	
2970	0	31610	38016	32772	32788	
2971	0	31666	38016	32784	32780	
2972	0	31680	38016	32784	32782	
2973	0	31732	38012	32778	32788	
2974	0	31744	38020	32782	32788	
2975	0	31720	37968	32769	32792	
2976	0	31634	37984	32776	32778	
2977	0	31634	38000	32772	32792	
2978	0	31656	38008	32776	32788	
2979	0	31696	38004	32784	32788	
2980	0	31754	38020	32784	32792	
2981	0	31777	38016	32776	32792	
2982	0	31752	37992	32772	32788	
2983	0	31736	37992	32788	32784	
2984	0	31774	37992	32772	32784	
2985	0	31814	37996	32760	32786	
2986	0	31856	38008	32760	32784	
2987	0	31868	38004	32772	32796	
2988	0	31904	37992	32780	32792	
2989	0	31956	38000	32756	32792	
2990	0	32012	37976	32760	32798	
2991	0	32048	38008	32760	32796	
2992	0	32028	37984	32788	32792	
2993	0	31992	37978	32770	32792	
2994	0	31964	37984	32764	32796	
2995	0	31948	37972	32764	32792	
2996	0	31936	38000	32768	32792	
2997	0	31928	38008	32768	32788	
2998	0	31920	38000	32776	32785	
2999	0	31850	37994	32764	32794	
3000	0	31840	38018	32788	32784	
3001	0	31860	38008	32776	32786	
3002	0	31932	38000	32768	32808	
3003	0	31988	37992	32784	32792	
3004	0	32000	37992	32776	32796	
3005	0	32032	38000	32784	32792	
3006	0	32036	38016	32792	32798	
3007	0	32016	38008	32784	32786	
3008	0	32004	38016	32796	32784	
3009	0	32048	38012	32768	32784	
3010	0	32084	37996	32772	32788	
3011	0	32090	38024	32768	32792	
3012	0	32040	38000	32752	32792	
3013	0	32000	37984	32752	32800	
3014	0	32048	37980	32760	32808	
3015	0	32120	37984	32768	32784	
3016	0	32216	38008	32764	32784	
3017	0	32220	37984	32760	32792	
3018	0	32188	38008	32752	32800	
3019	0	32148	38004	32764	32784	
3020	0	32108	37992	32764	32792	
3021	0	32202	37992	32772	32792	
3022	0	32348	38000	32768	32792	
3023	0	32512	37984	32768	32792	
3024	0	32652	37976	32764	32788	
3025	0	32752	37996	32776	32780	
3026	0	32840	38000	32780	32792	
3027	0	32824	37992	32784	32798	
3028	0	32772	37988	32794	32800	
3029	0	32756	38008	32784	32808	
3030	0	32760	37972	32778	32812	
3031	0	32720	38008	32778	32800	
3032	0	32672	38012	32764	32808	
3033	0	32640	38008	32770	32800	
3034	0	32580	37992	32782	32804	
3035	0	32516	37984	32780	32800	
3036	0	32500	38008	32768	32800	
3037	0	32520	38032	32768	32792	
3038	0	32568	38000	32776	32796	
3039	0	32644	37996	32776	32800	
3040	0	32716	38020	32760	32800	
3041	0	32792	37992	32768	32812	
3042	0	32940	38018	32772	32812	
3043	0	33112	38024	32760	32800	
3044	0	33132	38032	32768	32800	
3045	0	33064	38040	32768	32784	
3046	0	32964	38020	32768	32785	
3047	0	32808	38032	32760	32788	
3048	0	32744	38028	32762	32792	
3049	0	32760	38032	32772	32808	
3050	0	32800	38016	32756	32804	
3051	0	32776	38020	32760	32792	
3052	0	32712	38016	32752	32798	
3053	0	32700	38024	32744	32812	
3054	0	32720	38016	32762	32820	
3055	0	32776	38016	32752	32816	
3056	0	32856	38008	32768	32812	
3057	0	32904	38000	32760	32808	
3058	0	32944	38016	32768	32816	
3059	0	33016	37984	32772	32820	
3060	0	33040	37984	32788	32816	
3061	0	33052	38000	32784	32820	
3062	0	33100	38012	32784	32818	
3063	0	33186	38032	32800	32828	
3064	0	33284	38008	32800	32824	
3065	0	33344	38000	32812	32808	
3066	0	33380	37976	32828	32784	
3067	0	33360	37988	32800	32792	
3068	0	33368	37984	32770	32792	
3069	0	33380	37972	32756	32792	
3070	0	33356	37984	32768	32776	
3071	0	33324	37972	32762	32792	
3072	0	33296	37984	32772	32752	
3073	0	33296	37992	32780	32728	
3074	0	33312	37984	32778	32712	
3075	0	33296	38016	32784	32716	
3076	0	33248	38004	32798	32720	
3077	0	33240	38000	32794	32728	
3078	0	33252	38016	32802	32728	
3079	0	33274	38012	32800	32748	
3080	0	33308	38008	32780	32752	
3081	0	33332	38010	32780	32760	
3082	0	33364	38024	32794	32772	
3083	0	33368	38020	32812	32788	
3084	0	33396	38016	32852	32806	
3085	0	33456	38012	32896	32876	
3086	0	33496	38016	32888	32890	
3087	0	33550	38016	32876	32888	
3088	0	33618	38016	32840	32848	
3089	0	33650	38002	32800	32820	
3090	0	33664	38018	32784	32800	
3091	0	33648	38028	32772	32796	
3092	0	33636	38008	32772	32788	
3093	0	33636	38016	32764	32788	
3094	0	33608	38024	32752	32772	
3095	0	33621	38032	32760	32768	
3096	0	33656	38016	32768	32768	
3097	0	33696	38016	32760	32780	
3098	0	33720	38004	32760	32776	
3099	0	33754	38020	32752	32780	
3100	0	33808	38008	32752	32784	
3101	0	33872	38028	32756	32790	
3102	0	33964	38040	32752	32782	
3103	0	34040	38024	32770	32788	
3104	0	34120	38016	32760	32800	
3105	0	34180	38032	32752	32800	
3106	0	34180	38036	32756	32788	
3107	0	34144	38032	32752	32804	
3108	0	34164	38024	32760	32796	
3109	0	34162	38020	32760	32796	
3110	0	34176	38002	32756	32812	
3111	0	34196	38008	32760	32826	
3112	0	34176	37996	32760	32820	
3113	0	34144	38008	32760	32820	
3114	0	34164	38004	32748	32804	
3115	0	34178	38016	32748	32808	
3116	0	34152	38020	32748	32800	
3117	0	34128	38008	32757	32804	
3118	0	34176	38024	32764	32784	
3119	0	34272	38016	32752	32788	
3120	0	34396	38000	32754	32776	
3121	0	34468	37988	32752	32784	
3122	0	34508	37976	32760	32776	
3123	0	34560	37992	32770	32778	
3124	0	34616	38008	32762	32778	
3125	0	34692	38008	32760	32784	
3126	0	34792	38000	32764	32788	
3127	0	34884	37996	32768	32784	
3128	0	34952	37992	32768	32780	
3129	0	34984	37984	32764	32780	
3130	0	35028	37986	32770	32788	
3131	0	35028	37992	32776	32788	
3132	0	34920	38016	32780	32776	
3133	0	34872	38008	32784	32780	
3134	0	34912	38020	32772	32784	
3135	0	34976	38032	32796	32776	
3136	0	34992	38008	32800	32776	
3137	0	34992	38008	32788	32768	
3138	0	34984	38008	32792	32780	
3139	0	35032	38008	32792	32792	
3140	0	35096	38022	32788	32776	
3141	0	35160	38016	32786	32772	
3142	0	35248	38000	32792	32768	
3143	0	35320	38000	32784	32784	
3144	0	35356	38016	32784	32788	
3145	0	35404	38008	32788	32788	
3146	0	35456	38004	32793	32788	
3147	0	35464	37976	32788	32784	
3148	0	35484	37996	32792	32784	
3149	0	35456	37976	32796	32772	
3150	0	35448	37984	32792	32776	
3151	0	35416	38000	32784	32772	
3152	0	35380	38016	32800	32772	
3153	0	35328	38016	32808	32756	
3154	0	35360	38016	32808	32770	
3155	0	35440	38016	32798	32768	
3156	0	35512	38000	32792	32772	
3157	0	35554	37992	32794	32766	
3158	0	35600	38016	32788	32780	
3159	0	35632	38008	32768	32776	
3160	0	35684	37996	32768	32780	
3161	0	35736	38008	32768	32776	
3162	0	35764	37984	32778	32772	
3163	0	35808	37984	32776	32774	
3164	0	35864	38004	32786	32752	
3165	0	35888	38004	32780	32764	
3166	0	35848	37984	32772	32780	
3167	0	35802	37980	32780	32770	
3168	0	35800	37992	32776	32784	
3169	0	35816	38016	32772	32780	
3170	0	35792	37996	32768	32786	
3171	0	35722	38000	32772	32784	
3172	0	35656	38008	32780	32786	
3173	0	35580	38008	32772	32784	
3174	0	35540	38016	32784	32776	
3175	0	35552	38000	32768	32788	
3176	0	35592	38004	32776	32776	
3177	0	35648	38010	32776	32772	
3178	0	35672	38028	32768	32772	
3179	0	35660	38008	32770	32772	
3180	0	35648	37984	32764	32772	
3181	0	35624	37992	32764	32784	
3182	0	35608	37984	32756	32784	
3183	0	35578	38000	32756	32776	
3184	0	35504	38000	32760	32792	
3185	0	35432	38000	32768	32788	
3186	0	35328	38016	32768	32792	
3187	0	35192	38008	32772	32780	
3188	0	35096	38008	32772	32792	
3189	0	34976	38008	32760	32792	
3190	0	34856	37988	32768	32792	
3191	0	34736	38000	32768	32808	
3192	0	34624	38016	32776	32800	
3193	0	34508	37994	32776	32792	
3194	0	34388	38018	32784	32772	
3195	0	34296	38024	32776	32776	
3196	0	34204	38036	32780	32784	
3197	0	34128	38032	32792	32796	
3198	0	34052	38024	32788	32798	
3199	0	33996	38016	32780	32788	
3200	0	33908	38016	32772	32788	
3201	0	33824	38028	32772	32788	
3202	0	33712	37996	32788	32788	
3203	0	33624	37992	32784	32796	
3204	0	33578	37984	32780	32792	
3205	0	33476	37972	32786	32788	
3206	0	33324	37984	32784	32784	
3207	0	33180	37992	32772	32796	
3208	0	33040	37984	32776	32788	
3209	0	32928	37988	32768	32791	
3210	0	32858	38000	32778	32784	
3211	0	32808	38000	32782	32784	
3212	0	32728	38004	32788	32804	
3213	0	32620	38004	32776	32796	
3214	0	32458	38016	32784	32784	
3215	0	32314	38024	32768	32792	
3216	0	32240	38016	32780	32792	
3217	0	32212	38008	32784	32784	
3218	0	32170	38004	32772	32800	
3219	0	32088	38008	32788	32792	
3220	0	31970	37988	32784	32800	
3221	0	31840	37992	32784	32788	
3222	0	31752	38008	32782	32780	
3223	0	31648	38020	32782	32788	
3224	0	31529	38028	32772	32800	
3225	0	31496	38036	32772	32800	
3226	0	31520	38016	32784	32796	
3227	0	31498	38000	32776	32800	
3228	0	31412	38016	32776	32788	
3229	0	31330	38000	32784	32804	
3230	0	31244	38008	32780	32800	
3231	0	31144	38000	32776	32800	
3232	0	31082	37986	32780	32806	
3233	0	31016	37992	32784	32800	
3234	0	30952	38000	32792	32788	
3235	0	30898	38028	32788	32788	
3236	0	30834	38024	32800	32792	
3237	0	30770	38008	32792	32792	
3238	0	30720	38012	32784	32796	
3239	0	30660	38016	32784	32796	
3240	0	30584	38024	32764	32792	
3241	0	30500	38020	32760	32808	
3242	0	30380	37996	32748	32804	
3243	0	30292	37992	32770	32808	
3244	0	30248	38016	32780	32808	
3245	0	30236	38024	32780	32804	
3246	0	30248	38024	32776	32808	
3247	0	30280	38024	32788	32794	
3248	0	30256	37996	32800	32792	
3249	0	30240	38016	32772	32802	
3250	0	30296	38004	32776	32792	
3251	0	30312	37988	32792	32784	
3252	0	30288	38000	32788	32792	
3253	0	30248	37996	32788	32800	
3254	0	30204	37996	32780	32800	
3255	0	30144	38004	32780	32788	
3256	0	30116	38000	32772	32788	
3257	0	30188	38010	32768	32784	
3258	0	30250	37996	32760	32784	
3259	0	30241	37988	32762	32784	
3260	0	30184	37984	32762	32792	
3261	0	30118	37968	32762	32788	
3262	0	30122	37972	32754	32800	
3263	0	30128	37960	32764	32788	
3264	0	30112	37970	32760	32784	
3265	0	30060	37984	32760	32784	
3266	0	30024	38016	32760	32788	
3267	0	29976	38008	32768	32788	
3268	0	29904	38016	32784	32792	
3269	0	29882	38024	32776	32786	
3270	0	29908	38016	32780	32780	
3271	0	29928	38008	32780	32794	
3272	0	29938	37984	32778	32812	
3273	0	29977	37980	32784	32796	
3274	0	29984	37984	32792	32788	
3275	0	29998	37992	32780	32792	
3276	0	30032	37988	32774	32792	
3277	0	30084	37984	32792	32776	
3278	0	30112	38000	32776	32784	
3279	0	30084	37984	32780	32792	
3280	0	30024	37992	32784	32784	
3281	0	30050	38004	32778	32780	
3282	0	30066	38016	32776	32776	
3283	0	30080	38000	32768	32784	
3284	0	30156	38008	32760	32800	
3285	0	30220	38008	32756	32796	
3286	0	30280	37996	32764	32788	
3287	0	30316	37992	32784	32790	
3288	0	30352	37984	32776	32792	
3289	0	30345	37992	32780	32796	
3290	0	30304	38000	32788	32816	
3291	0	30256	37992	32780	32804	
3292	0	30200	37972	32792	32796	
3293	0	30170	38000	32780	32800	
3294	0	30132	37986	32768	32816	
3295	0	30112	37992	32768	32820	
3296	0	30156	37984	32760	32812	
3297	0	30220	37984	32752	32816	
3298	0	30272	38004	32752	32812	
3299	0	30274	38000	32762	32808	
3300	0	30256	37988	32776	32800	
3301	0	30256	37992	32782	32792	
3302	0	30324	38000	32772	32797	
3303	0	30424	38000	32788	32792	
3304	0	30529	37992	32786	32788	
3305	0	30576	38000	32796	32788	
3306	0	30592	37986	32784	32784	
3307	0	30592	37984	32793	32794	
3308	0	30572	37980	32792	32796	
3309	0	30536	37992	32800	32784	
3310	0	30500	37984	32800	32784	
3311	0	30476	38008	32796	32776	
3312	0	30470	38020	32804	32784	
3313	0	30496	38016	32800	32788	
3314	0	30496	38004	32788	32802	
3315	0	30492	38008	32780	32800	
3316	0	30500	38016	32784	32800	
3317	0	30536	38008	32794	32792	
3318	0	30640	38000	32784	32788	
3319	0	30784	37992	32788	32784	
3320	0	30832	37980	32792	32794	
3321	0	30760	37988	32768	32800	
3322	0	30744	38004	32772	32792	
3323	0	30782	37984	32776	32792	
3324	0	30844	38008	32780	32788	
3325	0	30898	38016	32772	32794	
3326	0	30960	38016	32788	32788	
3327	0	30996	38010	32792	32784	
3328	0	30980	38024	32788	32768	
3329	0	30988	38008	32792	32776	
3330	0	30970	38016	32792	32788	
3331	0	30940	38016	32768	32780	
3332	0	30912	38036	32772	32784	
3333	0	30892	38022	32776	32800	
3334	0	30840	38016	32768	32796	
3335	0	30836	38024	32762	32784	
3336	0	30888	38024	32762	32788	
3337	0	30988	38016	32764	32784	
3338	0	31104	38010	32772	32772	
3339	0	31200	38000	32772	32776	
3340	0	31220	38000	32760	32780	
3341	0	31224	37988	32768	32776	
3342	0	31288	38008	32768	32784	
3343	0	31312	37996	32768	32784	
3344	0	31376	37996	32768	32768	
3345	0	31388	37984	32772	32776	
3346	0	31380	37976	32748	32776	
3347	0	31338	38008	32744	32788	
3348	0	31304	38010	32772	32773	
3349	0	31280	38008	32768	32784	
3350	0	31264	38000	32792	32776	
3351	0	31216	38024	32780	32784	
3352	0	31141	38040	32768	32778	
3353	0	31090	38032	32770	32800	
3354	0	31026	38024	32772	32776	
3355	0	30968	38018	32780	32768	
3356	0	30960	38016	32776	32768	
3357	0	30994	38016	32768	32776	
3358	0	31020	38000	32768	32784	
3359	0	31092	37992	32768	32788	
3360	0	31184	38016	32760	32788	
3361	0	31210	38020	32760	32788	
3362	0	31216	38032	32780	32776	
3363	0	31200	38004	32772	32788	
3364	0	31180	38000	32764	32784	
3365	0	31256	37996	32772	32788	
3366	0	31340	37988	32784	32786	
3367	0	31392	38004	32772	32784	
3368	0	31408	38032	32768	32776	
3369	0	31448	38018	32756	32788	
3370	0	31448	38008	32768	32776	
3371	0	31460	38008	32780	32780	
3372	0	31504	38004	32780	32776	
3373	0	31556	37992	32780	32780	
3374	0	31584	38008	32776	32784	
3375	0	31608	38016	32768	32800	
3376	0	31608	38016	32778	32784	
3377	0	31568	38016	32776	32796	
3378	0	31524	38008	32784	32782	
3379	0	31528	38000	32780	32788	
3380	0	31496	38004	32780	32792	
3381	0	31492	38000	32770	32796	
3382	0	31504	37992	32776	32792	
3383	0	31512	38002	32780	32788	
3384	0	31560	38016	32776	32792	
3385	0	31592	38016	32772	32788	
3386	0	31616	38000	32784	32788	
3387	0	31616	38016	32784	32788	
3388	0	31652	38032	32780	32792	
3389	0	31736	38016	32776	32792	
3390	0	31793	37992	32784	32800	
3391	0	31736	38000	32788	32798	
3392	0	31656	38024	32788	32792	
3393	0	31648	38024	32794	32802	
3394	0	31608	38016	32786	32792	
3395	0	31616	38000	32780	32800	
3396	0	31626	37992	32772	32786	
3397	0	31624	38004	32784	32800	
3398	0	31640	38000	32780	32800	
3399	0	31656	37992	32776	32801	
3400	0	31716	37988	32768	32804	
3401	0	31720	37988	32776	32802	
3402	0	31768	37988	32776	32792	
3403	0	31880	37984	32760	32808	
3404	0	31968	37996	32756	32800	
3405	0	32040	37988	32780	32800	
3406	0	32116	37992	32768	32800	
3407	0	32152	37980	32784	32792	
3408	0	32156	37980	32770	32789	
3409	0	32140	37968	32768	32801	
3410	0	32124	37988	32772	32800	
3411	0	32108	37984	32760	32796	
3412	0	32132	38008	32760	32804	
3413	0	32160	37988	32772	32808	
3414	0	32148	38000	32764	32800	
3415	0	32080	38018	32754	32816	
3416	0	31972	38018	32757	32818	
3417	0	31872	38024	32764	32804	
3418	0	31840	38040	32768	32800	
3419	0	31872	38016	32764	32796	
3420	0	31908	38026	32768	32788	
3421	0	31952	38016	32773	32782	
3422	0	32004	38004	32760	32784	
3423	0	32096	38000	32756	32784	
3424	0	32228	37996	32768	32776	
3425	0	32292	38000	32768	32784	
3426	0	32284	37992	32776	32776	
3427	0	32242	38000	32772	32776	
3428	0	32260	38016	32772	32776	
3429	0	32264	38016	32776	32780	
3430	0	32226	38016	32776	32782	
3431	0	32178	38024	32776	32784	
3432	0	32172	38016	32786	32784	
3433	0	32164	38016	32776	32786	
3434	0	32136	38016	32776	32796	
3435	0	32130	38016	32776	32788	
3436	0	32121	38012	32762	32796	
3437	0	32168	37992	32760	32792	
3438	0	32145	38008	32762	32792	
3439	0	32102	38024	32768	32780	
3440	0	32084	38024	32768	32780	
3441	0	32040	38004	32760	32788	
3442	0	32056	37988	32768	32784	
3443	0	32130	38000	32768	32776	
3444	0	32216	37992	32768	32784	
3445	0	32224	38008	32770	32792	
3446	0	32188	38004	32768	32796	
3447	0	32224	37964	32768	32778	
3448	0	32292	37992	32760	32785	
3449	0	32418	37996	32760	32792	
3450	0	32396	37980	32768	32780	
3451	0	32300	37984	32754	32788	
3452	0	32248	37984	32768	32780	
3453	0	32208	37988	32754	32784	
3454	0	32256	38000	32744	32792	
3455	0	32280	38016	32756	32792	
3456	0	32280	38032	32756	32784	
3457	0	32276	38032	32768	32784	
3458	0	32260	38004	32768	32784	
3459	0	32228	38004	32776	32800	
3460	0	32204	38000	32780	32784	
3461	0	32204	37984	32784	32776	
3462	0	32288	38008	32780	32780	
3463	0	32384	37988	32776	32784	
3464	0	32430	37988	32772	32776	
3465	0	32388	37984	32764	32784	
3466	0	32400	37993	32772	32772	
3467	0	32408	38016	32788	32772	
3468	0	32400	38024	32784	32792	
3469	0	32388	38004	32780	32792	
3470	0	32416	38004	32778	32794	
3471	0	32440	38008	32792	32792	
3472	0	32400	38016	32780	32792	
3473	0	32352	38020	32778	32792	
3474	0	32292	37996	32768	32792	
3475	0	32232	37998	32776	32784	
3476	0	32176	38000	32784	32788	
3477	0	32152	38016	32792	32800	
3478	0	32228	38008	32800	32788	
3479	0	32312	38028	32776	32776	
3480	0	32368	38016	32780	32788	
3481	0	32424	37986	32784	32792	
3482	0	32424	38004	32788	32776	
3483	0	32432	37988	32772	32780	
3484	0	32456	37992	32782	32784	
3485	0	32488	37984	32768	32808	
3486	0	32512	38000	32784	32800	
3487	0	32560	37992	32784	32788	
3488	0	32592	37992	32784	32802	
3489	0	32628	38004	32768	32800	
3490	0	32634	37992	32780	32792	
3491	0	32658	37964	32780	32788	
3492	0	32672	37984	32780	32800	
3493	0	32629	37992	32788	32792	
3494	0	32602	37996	32772	32792	
3495	0	32568	38008	32776	32786	
3496	0	32480	38016	32784	32784	
3497	0	32452	37992	32776	32788	
3498	0	32464	38000	32792	32784	
3499	0	32440	38004	32784	32802	
3500	0	32432	37994	32800	32784	
3501	0	32416	37992	32794	32776	
3502	0	32428	37984	32792	32780	
3503	0	32474	37984	32785	32776	
3504	0	32516	37988	32784	32776	
3505	0	32576	37992	32778	32784	
3506	0	32616	37992	32776	32800	
3507	0	32584	37984	32778	32800	
3508	0	32600	38004	32768	32808	
3509	0	32632	37985	32768	32796	
3510	0	32618	37992	32768	32794	
3511	0	32608	37984	32760	32800	
3512	0	32544	38000	32768	32800	
3513	0	32460	38016	32762	32800	
3514	0	32408	38000	32772	32784	
3515	0	32396	38000	32776	32792	
3516	0	32404	38016	32764	32788	
3517	0	32500	38048	32768	32792	
3518	0	32600	38060	32776	32792	
3519	0	32604	38032	32768	32784	
3520	0	32524	38004	32764	32792	
3521	0	32480	38000	32764	32796	
3522	0	32474	38008	32756	32800	
3523	0	32484	38008	32768	32792	
3524	0	32508	38008	32760	32792	
3525	0	32520	38000	32772	32780	
3526	0	32576	38016	32768	32792	
3527	0	32624	37988	32764	32784	
3528	0	32632	37992	32760	32800	
3529	0	32674	37992	32752	32784	
3530	0	32704	38008	32756	32808	
3531	0	32616	38000	32752	32800	
3532	0	32484	37984	32764	32788	
3533	0	32416	37986	32756	32784	
3534	0	32394	37988	32768	32772	
3535	0	32384	38000	32776	32784	
3536	0	32408	38000	32780	32778	
3537	0	32432	38000	32784	32792	
3538	0	32448	38008	32764	32792	
3539	0	32474	38000	32770	32800	
3540	0	32512	38008	32768	32804	
3541	0	32520	38024	32770	32800	
3542	0	32504	38034	32780	32784	
3543	0	32480	38012	32780	32784	
3544	0	32468	38012	32788	32768	
3545	0	32448	38008	32792	32778	
3546	0	32442	38016	32784	32776	
3547	0	32534	38000	32788	32778	
3548	0	32652	38016	32780	32768	
3549	0	32788	37996	32776	32784	
3550	0	32816	37976	32792	32784	
3551	0	32822	37994	32786	32780	
3552	0	32808	38000	32768	32788	
3553	0	32760	37994	32780	32792	
3554	0	32692	38004	32768	32780	
3555	0	32544	38000	32770	32776	
3556	0	32448	38000	32776	32782	
3557	0	32428	38000	32784	32782	
3558	0	32452	38004	32784	32784	
3559	0	32488	38008	32784	32780	
3560	0	32530	38004	32776	32776	
3561	0	32588	37984	32786	32784	
3562	0	32712	37988	32788	32784	
3563	0	32848	37984	32792	32778	
3564	0	32896	37992	32784	32788	
3565	0	32932	37984	32776	32793	
3566	0	32980	37984	32768	32800	
3567	0	33028	37984	32772	32780	
3568	0	33036	37976	32768	32774	
3569	0	33040	38010	32770	32780	
3570	0	33036	38016	32776	32788	
3571	0	33024	38016	32768	32792	
3572	0	33024	38016	32770	32792	
3573	0	32974	38008	32770	32800	
3574	0	32896	38004	32772	32800	
3575	0	32832	38008	32776	32800	
3576	0	32820	38016	32772	32800	
3577	0	32804	37992	32772	32788	
3578	0	32776	38000	32780	32792	
3579	0	32784	38008	32784	32780	
3580	0	32800	37996	32772	32788	
3581	0	32822	38016	32772	32794	
3582	0	32856	38010	32772	32802	
3583	0	32864	38016	32768	32796	
3584	0	32864	38016	32768	32800	
3585	0	32880	38016	32772	32792	
3586	0	32874	38000	32780	32784	
3587	0	32896	38000	32786	32774	
3588	0	32896	38008	32784	32789	
3589	0	32916	37996	32768	32800	
3590	0	32964	38004	32764	32808	
3591	0	32944	37992	32760	32816	
3592	0	32916	37996	32768	32808	
3593	0	32896	38008	32762	32808	
3594	0	32868	37992	32768	32812	
3595	0	32784	38000	32768	32800	
3596	0	32718	38000	32768	32794	
3597	0	32704	37996	32772	32796	
3598	0	32688	37996	32784	32804	
3599	0	32660	38016	32780	32794	
3600	0	32692	38016	32784	32796	
3601	0	32760	38024	32772	32794	
3602	0	32788	38000	32784	32792	
3603	0	32796	38008	32768	32800	
3604	0	32768	37988	32772	32804	
3605	0	32736	38004	32772	32792	
3606	0	32724	38008	32780	32800	
3607	0	32756	37992	32784	32796	
3608	0	32824	37996	32784	32800	
3609	0	32868	38008	32772	32804	
3610	0	32920	38004	32772	32800	
3611	0	32916	37992	32780	32808	
3612	0	32880	38010	32768	32800	
3613	0	32848	38032	32784	32792	
3614	0	32784	38036	32772	32800	
3615	0	32764	38020	32776	32800	
3616	0	32748	38028	32784	32788	
3617	0	32784	38008	32782	32788	
3618	0	32788	38020	32784	32792	
3619	0	32766	38016	32784	32800	
3620	0	32772	38016	32788	32808	
3621	0	32800	38018	32760	32812	
3622	0	32840	38016	32772	32804	
3623	0	32884	38016	32780	32792	
3624	0	32936	38000	32780	32794	
3625	0	32956	38000	32776	32804	
3626	0	32938	37988	32788	32808	
3627	0	32964	37988	32784	32804	
3628	0	32992	37984	32784	32804	
3629	0	32952	37984	32770	32800	
3630	0	32960	38000	32774	32812	
3631	0	32940	37984	32784	32809	
3632	0	32888	38000	32784	32796	
3633	0	32842	38008	32794	32786	
3634	0	32796	38008	32792	32796	
3635	0	32746	38004	32784	32792	
3636	0	32714	38000	32768	32792	
3637	0	32732	37992	32760	32780	
3638	0	32768	37984	32768	32792	
3639	0	32770	37984	32760	32780	
3640	0	32808	37980	32776	32780	
3641	0	32808	38000	32780	32780	
